frame,phase,pelvis_tx,pelvis_ty,ncon,r_heel_btm_x,r_heel_btm_z,r_heel_btm_terrain_z,r_heel_btm_clearance,r_heel_btm_surface,r_heel_btm_edge_margin,r_toe_btm_x,r_toe_btm_z,r_toe_btm_terrain_z,r_toe_btm_clearance,r_toe_btm_surface,r_toe_btm_edge_margin,l_heel_btm_x,l_heel_btm_z,l_heel_btm_terrain_z,l_heel_btm_clearance,l_heel_btm_surface,l_heel_btm_edge_margin,l_toe_btm_x,l_toe_btm_z,l_toe_btm_terrain_z,l_toe_btm_clearance,l_toe_btm_surface,l_toe_btm_edge_margin
0,0,0.3499999940395355,0.9387088418006897,8,-0.0039629283077859175,0.10086546526853027,0.0,0.10086546526853027,,,0.14551669417602958,0.0435868276622378,0.0235868067796604,0.0200000208825774,,,0.5944428657267355,0.14469953245452183,0.09635326788336118,0.048346264571160646,,,0.7407755343642103,0.20959752868526396,0.12007233599611622,0.08952519268914774,,
1,1,0.39058148115873337,0.9490700960159302,9,0.05264800641770597,0.13476101330895923,0.008533717466166216,0.12622729584279302,,,0.18882040399457928,0.05060593120182691,0.030605906836297513,0.020000024365529397,,,0.6216709229030563,0.14287758152819724,0.1007666647601933,0.042110916768003936,,,0.7661561928829593,0.2117906177541817,0.12418628795064658,0.08760432980353512,,
2,2,0.42922917008399963,0.9482125043869019,6,0.11539905824463619,0.16082227034707128,0.018705037966835408,0.14211723238023588,,,0.23865812070178166,0.05868411347344529,0.038684104330876615,0.020000009142568678,,,0.6381151007875779,0.12404595214612414,0.10343210221126253,0.02061384993486161,,,0.7816731395528624,0.19487030740501748,0.12670143045704904,0.06816887694796844,,
3,3,0.4671938121318817,0.9695713520050049,4,0.18673970526197817,0.20375236572425764,0.03026864629550225,0.1734837194287554,,,0.30748991533098324,0.09866009050738632,0.04984105267559569,0.04881903783179063,,,0.6449624051692578,0.12454195485841466,0.1045419820523812,0.019999972806033453,,,0.7885764106933904,0.1952527546697152,0.12782038195234807,0.06743237271736713,,
4,4,0.5049821883440018,0.9901822209358215,2,0.26548772950486327,0.2366842269288115,0.04303291669495247,0.19365131023385904,,,0.3926372477706026,0.13943197958949044,0.06364258719662688,0.07578939239286356,,,0.6418031897920415,0.12402992313032185,0.1040299047055196,0.020000018424802257,,,0.7865068519796106,0.19248319153420762,0.12748492709764914,0.06499826443655848,,
5,5,0.542563185095787,1.0070457458496094,2,0.3504129362113187,0.2553965353136089,0.05679844684701009,0.19859808846659882,,,0.4874078126791406,0.17258709420224688,0.0790039518534744,0.09358314234877248,,,0.6299657211608042,0.1221111851294262,0.10211116894158359,0.020000016187842612,,,0.7765674199039346,0.18639914476594882,0.12587384415492556,0.060525300611023264,,
6,6,0.5798224806785583,1.0189900398254395,2,0.446023375743469,0.2591857758613567,0.07229594681519391,0.1868898290461628,,,0.5934641660745361,0.19684627646184782,0.09619463041758819,0.10065164604425964,,,0.6173206761146491,0.1200615730708483,0.10006153308425052,0.020000039986597787,,,0.7659797382933546,0.17943735168417713,0.12415768641915938,0.05527966526501775,,
7,7,0.6167887449264526,1.0269207954406738,2,0.5550745963683383,0.2533299868677558,0.08997206352832782,0.163357923339428,,,0.7107379850295296,0.21599489114393683,0.11520354842295584,0.10079134272098099,,,0.60895257398988,0.11870512777402548,0.0987051470761226,0.019999980697902875,,,0.7594208675049667,0.17333380634941473,0.12309455879071475,0.050239247558699976,,
8,8,0.6537091732025146,1.031895637512207,2,0.6757922859776773,0.2447662343894483,0.10953919866581315,0.13522703572363515,,,0.8355943391030829,0.2353692235220048,0.13544151984899228,0.09992770367301251,,,0.6047804336662314,0.11802890060531467,0.09802888468417678,0.020000015921137884,,,0.7567603533609848,0.16829920898682652,0.12266331594669615,0.04563589304013037,,
9,9,0.6909048557281494,1.0345786809921265,2,0.8042706282683919,0.2399639418908388,0.13036425830684878,0.10959968358399003,,,0.9631732775724068,0.25932751667999976,0.15612079508864252,0.10320672159135724,,,0.6038751493959472,0.11788215245587476,0.09788214712059505,0.020000005335279708,,,0.7571228187966086,0.16414392646540948,0.12272206798365504,0.04142185848175445,,
10,10,0.7284146249294281,1.0348231792449951,2,0.931502612831812,0.2424676544525817,0.1509872957740129,0.0914803586785688,,,1.0849829968346274,0.28795140584307577,0.17586493735624462,0.11208646848683115,,,0.6033547675152279,0.1177977966912038,0.09779779840073398,0.01999999829046982,,,0.7578186953438925,0.15982034928509037,0.12283486264103934,0.03698548664405103,,
11,11,0.7667942643165588,1.0315985679626465,2,1.0448353660401088,0.24921694677384035,0.16935740627485588,0.07985954049898447,,,1.1905836517394663,0.31541692437164714,0.19298175173379617,0.12243517263785098,,,0.5991077173446754,0.11710933544315606,0.09710939386870712,0.01999994157444894,,,0.7549675882799963,0.15361550720568654,0.12237272658300813,0.031242780622678407,,
12,12,0.806951254606247,1.0231057405471802,2,1.1318190353850355,0.2505454326438168,0.1834565927183218,0.067088839925495,,,1.2709187258920869,0.3297683828574573,0.2060032671165974,0.12376511574085991,,,0.5883056387993626,0.11535845702583265,0.09535848452521423,0.019999972500618426,,,0.7458337565047273,0.14381706027014038,0.12089222342520149,0.022924836844938887,,
13,13,0.849322646856308,1.0173521041870117,2,1.1853721061840254,0.24699492102246495,0.19213701210625292,0.054857908916212034,,,1.322701062645714,0.32924914545230377,0.21439666815228628,0.11485247730001749,,,0.5738530097791529,0.12168969429590366,0.09301585730922328,0.028673836986680384,,,0.7330125423682422,0.13881403877565665,0.11881403231297007,0.020000006462686584,,
14,14,0.8939670026302338,1.0134555101394653,4,1.205700165606576,0.23675678343087245,0.1954319880711765,0.04132479535969594,,,1.3472750224378527,0.31146662001030245,0.21837986227795242,0.09308675773235003,,,0.5618025036970042,0.1349338094033379,0.09106259029634756,0.04387121910699035,,,0.7218671784311133,0.13700742992925857,0.11700747982658628,0.01999995010267229,,
15,15,0.9405588805675507,1.0107275247573853,5,1.204049278756597,0.22464238301273118,0.19516439575562797,0.02947798725710321,,,1.3515301455443174,0.28688701146261353,0.21906957535248422,0.0678174361101293,,,0.5562744984640905,0.15332926341093567,0.09016655570702437,0.0631627077039113,,,0.7154075413674781,0.13596047980938347,0.11596043699655617,0.0200000428128273,,
16,16,0.9879882037639618,1.0130990743637085,5,1.2032306793675969,0.21867507512266335,0.19503170894792093,0.023643366174742414,,,1.353665430732173,0.2733960533457825,0.21941568381399512,0.053980369531787364,,,0.5632071306131096,0.17848920967586357,0.09129026632936414,0.08719894334649943,,,0.717631340868339,0.13632093708491302,0.1163208927466027,0.02000004433831032,,
17,17,1.0342896282672882,1.0235490798950195,5,1.213493283628642,0.22007652775615266,0.19669517488309793,0.023381352873054734,,,1.3640626992082845,0.27442586969791755,0.2211009774771788,0.053324892220738745,,,0.5900496329313231,0.21052823644215948,0.09564116860382346,0.11488706783833602,,,0.7331786857318283,0.13884090121966292,0.11884096249741948,0.01999993872224344,,
18,18,1.0776531994342804,1.0348681211471558,6,1.2281458229801858,0.2190701920141534,0.19907020557269123,0.01999998644146217,,,1.3778698137600016,0.27570698616720246,0.2233389732271512,0.05236801294005125,,,0.6352466456839541,0.2449034819485962,0.10296715420877793,0.1419363277398183,,,0.7588639655145104,0.14319921552415438,0.1230042905248056,0.020194924999348773,,
19,19,1.1180581152439117,1.0526803731918335,8,1.2401506449096509,0.22101605301723126,0.20101606763943108,0.019999985377800178,,,1.3892046187747324,0.2793933836661628,0.22517623222538113,0.05421715144078165,,,0.6952473520944752,0.28812770946466504,0.11269267111088756,0.1754350383537775,,,0.7953975490187387,0.16324801772386047,0.1289260205363493,0.034321997187511166,,
20,20,1.156426578760147,1.071818470954895,4,1.2494550010818244,0.222524204552891,0.20252421110355295,0.019999993449338033,,,1.3981216741961846,0.28188092413031574,0.2266215980953265,0.05525932603498923,,,0.7677492302982253,0.3274682586235833,0.12444450344900854,0.20302375517457477,,,0.8544724194729695,0.19291682716130104,0.1385014686512704,0.054415358510030654,,
21,21,1.1933716237545013,1.0906418561935425,4,1.2584993674770355,0.22399021197240002,0.20399021281432736,0.019999999158072657,,,1.4069903479000754,0.2837850995860103,0.22805912177073712,0.055725977815273164,,,0.8511002799487144,0.35313221075029116,0.13795487842089832,0.21517733232939285,,,0.9433090980871418,0.22227911316598048,0.15290100944130874,0.06937810372467174,,
22,22,1.2295286357402802,1.1074678897857666,3,1.2689709098831097,0.2256875399633106,0.20568754554178964,0.01999999442152095,,,1.4176593199945677,0.28498978741380787,0.22978845588429228,0.05520133152951559,,,0.9475747508837445,0.363614228475741,0.15359242927373618,0.2100217992020048,,,1.0556300958965166,0.2455081666682432,0.1711071244690702,0.07440104219917301,,
23,23,1.265788048505783,1.1208676099777222,2,1.2753894408626392,0.22672795834031476,0.2067279254850028,0.02000003285531196,,,1.4250575654393691,0.28351221982146835,0.23098763778436995,0.052524582037098394,,,1.0520227074674298,0.36349584296873316,0.17052240273430397,0.1929734402344292,,,1.1780021143796777,0.2647325470055427,0.19094240983988653,0.07379013716565619,,
24,24,1.3020000159740448,1.1296650171279907,2,1.2726652860614203,0.22628633439199217,0.20628636712430704,0.01999996726768513,,,1.4239942756838877,0.2784834299706849,0.23081528910537238,0.04766814086531254,,,1.1594815684998472,0.35560761755509307,0.18794041381740295,0.16766720373769012,,,1.301771171296099,0.28226820991485657,0.21100414122623154,0.07126406868862503,,
25,25,1.337877780199051,1.1330163478851318,2,1.2603863535763653,0.2242961089682674,0.2042960744666472,0.020000034501620217,,,1.4136682589449132,0.2704443201824241,0.22914154463911132,0.04130277554331277,,,1.2687262700659012,0.3423292315519397,0.2056478918640327,0.13668133968790702,,,1.4223515312935608,0.2973372430564032,0.2305490166014345,0.06678822645496868,,
26,26,1.3736116588115692,1.1314648389816284,2,1.2447478350336445,0.2217612344648674,0.20176122637051683,0.02000000809435057,,,1.3998004455671507,0.2615568108655952,0.22689371021399726,0.03466310065159792,,,1.38229241867186,0.32631986410103075,0.2240558334342185,0.10226403066681225,,,1.5415798671656633,0.31042934045132325,0.24987474233207704,0.06055459811924621,,
27,27,1.409499853849411,1.126404047012329,2,1.2302505337920697,0.21941132737192248,0.19941135823237793,0.01999996913954455,,,1.3866589606398154,0.2534907047554309,0.2247636063964661,0.02872709835896481,,,1.4992761932277072,0.31173835012596524,0.24301773813132677,0.06872061199463847,,,1.6588724952792555,0.32414884427742746,0.2688867091147143,0.055262135162713166,,
28,28,1.4461629092693329,1.1173031330108643,2,1.2147251988867311,0.21689488177814042,0.19689485607655818,0.02000002570158224,,,1.3723080073711245,0.24504907218201927,0.22243745980710586,0.02261161237491341,,,1.6089463072105887,0.2999880461902351,0.2607941712936166,0.03919387489661852,,,1.765112390553395,0.3351612513620769,0.2861071379892954,0.04905411337278154,,
29,29,1.4843117892742157,1.110898494720459,2,1.1970091083732781,0.2218601964978896,0.19402325425658898,0.027836942241300622,,,1.3557350852771126,0.2426222830511799,0.21975115420197058,0.022871128849209305,,,1.6985394372948683,0.29531636820432977,0.27531632533270267,0.0200000428716271,,,1.85074373330425,0.34490318272507803,0.2999871257610352,0.04491605696404283,,
30,30,1.5241689383983612,1.118896722793579,2,1.184825927856795,0.24463481577785778,0.192048482039345,0.05258633373851279,,,1.34448423071649,0.25622042419499647,0.21792750273620506,0.0382929214587914,,,1.764829981696108,0.30606130809211624,0.2860613623263214,0.019999945765794835,,,1.9147116587861897,0.36227947901213997,0.3103556893611198,0.05192378965102018,,
31,31,1.5654966533184052,1.1237151622772217,2,1.1894539640074575,0.26307664222075045,0.19279864060412732,0.07027800161662312,,,1.349529640270151,0.26395861104618507,0.21874531337257438,0.04521329767361068,,,1.8120681688911857,0.3137181366114578,0.293718201978299,0.0199999346331588,,,1.9621387427717845,0.3694300987598698,0.31804314730142824,0.051386951458441577,,
32,32,1.608249992132187,1.1272165775299072,2,1.2142299961805358,0.27630750857524045,0.1968145886501029,0.07949291992513755,,,1.3738210462292983,0.2638296586852828,0.2226827083361488,0.04114695034913399,,,1.8462989889756927,0.31926674187500276,0.29926667697502957,0.02000006489997319,,,1.997916856240462,0.37061868649952734,0.3238424231446907,0.046776263354836645,,
33,33,1.6520366370677948,1.1322249174118042,4,1.2529345058986652,0.2900520293931782,0.20308820417849485,0.08696382521468335,,,1.409944770666723,0.2588626607377954,0.22853800427515994,0.030324656462635463,,,1.8778519913403566,0.32438104952092794,0.30438110439043803,0.019999945130489916,,,2.02989442240659,0.3744619745468685,0.329025668123661,0.045436306423207506,,
34,34,1.6956331431865692,1.1408417224884033,4,1.3005641715024319,0.3112443668612299,0.21080849858139603,0.10043586827983389,,,1.4506338455835073,0.2555299809948587,0.2351332980559845,0.020396682938874172,,,1.911469324420774,0.3298300937294355,0.3098301392541362,0.019999954475299286,,,2.062479012961897,0.3829438758365083,0.3343073057101544,0.04863657012635392,,
35,35,1.737677663564682,1.1544675827026367,4,1.3547339618642456,0.34469688411677496,0.21958888206793403,0.12510800204884093,,,1.4916664329924492,0.2617842911913053,0.2417842717904034,0.020000019400901903,,,1.9410364673824227,0.3353462216671129,0.3146226786394756,0.020723543027637348,,,2.090483672201108,0.39270938785777054,0.3388465820464245,0.05386280581134606,,
36,36,1.7777791917324066,1.1699273586273193,4,1.4169659756246025,0.38381422219958583,0.22967607166763082,0.154138150531955,,,1.5373340740046133,0.2782845087036869,0.2491865415487707,0.029097967154916166,,,1.9633772702812462,0.3382438525933287,0.318243900274978,0.019999952318350667,,,2.1115130812047895,0.3989132960502701,0.34225523979300754,0.05665805625726256,,
37,37,1.8165485560894012,1.1878454685211182,5,1.4865801707907214,0.4207575403631661,0.24095983934667484,0.17979770101649126,,,1.5983506841499608,0.30616106660071785,0.2590767263278945,0.04708434027282332,,,1.9779160360990011,0.34060045165576996,0.3206004894079285,0.019999962247841452,,,2.1253575407417125,0.40293826159109847,0.3444992887931258,0.058438972797972666,,
38,38,1.8544069230556488,1.2056928873062134,4,1.5609597438529828,0.44780336103286794,0.2530160273195197,0.19478733371334822,,,1.6778409537264873,0.33842428496096066,0.2719613073031645,0.06646297765779619,,,1.983386262476273,0.3414871149698888,0.3214871586202296,0.01999995634965923,,,2.1309061395137796,0.4036392325415159,0.3453986613900341,0.05824057115148179,,
39,39,1.8914196193218231,1.2215262651443481,2,1.6426203858941741,0.46306231500728806,0.2662524040544021,0.19680991095288597,,,1.77101412705741,0.3674587227575605,0.28706375069530066,0.08039497206225982,,,1.982472957716515,0.3413391072946112,0.3213391210151882,0.01999998627942301,,,2.130700786236064,0.40178338494651805,0.345365375669035,0.05641800927748303,,
40,40,1.9278192222118378,1.2343411445617676,2,1.7323544485181759,0.46732442482520553,0.28079740185448904,0.1865270229707165,,,1.873112785788553,0.3910873587232109,0.303612926372978,0.08747443235023289,,,1.9776932711808928,0.3405643954196897,0.32056438143344174,0.020000013986247955,,,2.127164585469007,0.3978647101554552,0.34479219274525474,0.05307251741020047,,
41,41,1.9636419713497162,1.2437984943389893,2,1.8308902704280012,0.463072764713006,0.2967690771692855,0.1663036875437205,,,1.9820512370568653,0.4103910596084095,0.32127076429659673,0.08912029531181276,,,1.9718999522321186,0.3396252806546026,0.3196253421333022,0.019999938521300442,,,2.1229448307667536,0.3926389067511319,0.3441082125367763,0.048530694214355574,,
42,42,1.998862475156784,1.2499306201934814,2,1.9382661108573611,0.4546008319811289,0.3141736314395141,0.14042720054161478,,,2.0960199214273123,0.42742114802374803,0.3397439529049499,0.08767719511879812,,,1.9671407403822772,0.33885398831944846,0.3188539212941929,0.020000067025255586,,,2.119827693209205,0.38693407089588555,0.3436029555853878,0.04333111531049777,,
43,43,2.03357657790184,1.2530087232589722,2,2.0517136700881693,0.4463968371900102,0.3325623508531381,0.1138344863368721,,,2.2117806523434584,0.44450972523329035,0.35850761440957724,0.08600211082371312,,,1.9628431997554356,0.3381573167132106,0.3181573327620865,0.019999983951124067,,,2.1170394895628464,0.38115155043085946,0.34315101554482136,0.038000534886038106,,
44,44,2.0680879056453705,1.253635287284851,2,2.1681588663416895,0.44200362622071077,0.35143695737167907,0.0905666688490317,,,2.3266894530249904,0.4642084244724514,0.3771331865083988,0.08707523796405264,,,1.9589182670496117,0.3375211038636719,0.3175211402628022,0.019999963600869697,,,2.1143988466194,0.3756103322159977,0.3427229936244924,0.03288733859150533,,
45,45,2.1029829680919647,1.2523351907730103,2,2.283214790157184,0.4437314341970741,0.3700863766651696,0.07364505753190453,,,2.4371226888579196,0.4877468705481788,0.39503331412188775,0.09271355642629103,,,1.9554410296314397,0.3369575041324784,0.31695751471060124,0.01999998942187714,,,2.11199332019378,0.3703697814177235,0.3423330817499426,0.028036699667780884,,
46,46,2.1390590369701385,1.2478963136672974,2,2.387255834985782,0.44855788876749375,0.38695039378307877,0.06160749498441498,,,2.534933274265247,0.5103346948486381,0.41088743582298487,0.09944725902565327,,,1.949368275770955,0.33597322649352607,0.3159731817944451,0.020000044699080954,,,2.106979978775901,0.36396520826304773,0.341520469038985,0.02244473922406276,,
47,47,2.176784485578537,1.2441409826278687,2,2.47010726194489,0.455175299602837,0.40037978489293763,0.05479551470989935,,,2.612743044298148,0.527839137744657,0.42349962456000856,0.1043395131846484,,,1.93994278693848,0.33955256439289905,0.3144454039325697,0.025107160460329347,,,2.098686813894231,0.3601761889102434,0.34017622961158844,0.019999959298654946,,
48,48,2.216326802968979,1.2414199113845825,2,2.525567430377985,0.4586054390890754,0.4093693258126648,0.04923611327641064,,,2.66723037012526,0.5331481199619564,0.4323314773828182,0.10081664257913825,,,1.9311895651225583,0.3483233854955424,0.31302659385829806,0.03529679163724436,,,2.0909167682500627,0.3589168068697205,0.3389167826023234,0.02000002426739711,,
49,49,2.2579706609249115,1.2395505905151367,3,2.552804601361941,0.45605026947393446,0.4137841999469411,0.042266069526993355,,,2.6975768647095597,0.524358333212412,0.4372503419038471,0.08710799130856489,,,1.9281563620668967,0.36150651195247496,0.31253494185367775,0.04897157009879721,,,2.0882058059075064,0.3584773988923673,0.33847736260777994,0.020000036284587352,,
50,50,2.3020027577877045,1.239983320236206,4,2.5587615492744047,0.4497616466670851,0.4147497618723502,0.03501188479473494,,,2.7073467573287897,0.5093220009332908,0.4388339441892938,0.07048805674399705,,,1.931356483651274,0.38111471436372996,0.31305364968929433,0.06806106467443562,,,2.0898640376731636,0.3587460913116287,0.33874614546100457,0.019999945850624146,,
51,51,2.3474206626415253,1.2437586784362793,4,2.560142172493832,0.4441566438811008,0.4149735471452121,0.029183096735888703,,,2.7105844716606433,0.49885686780490907,0.43935874543485254,0.05949812237005653,,,1.9428617721962211,0.40898733148007704,0.31491854236975636,0.09406878911032068,,,2.0951308515934857,0.3595998091859375,0.33959984354002215,0.01999996564591533,,
52,52,2.392223447561264,1.2511094808578491,4,2.5673475816981335,0.4409191712803586,0.4161414722113537,0.0247776990690049,,,2.7180009798950775,0.4950352824697283,0.4405608875512323,0.05447439491849598,,,1.9711006464958665,0.4438545305294813,0.3194957826345408,0.1243587478949405,,,2.1085323807106087,0.3617721441648647,0.34177209793067775,0.02000004623418694,,
53,53,2.4348083436489105,1.261067509651184,4,2.5799265701385665,0.43818036226581525,0.41818040095082304,0.01999996131499221,,,2.7299083248417086,0.4941309934181051,0.4424909495699255,0.051640043848179606,,,2.0194291743083523,0.4830008893984449,0.3273293556408078,0.1556715337576371,,,2.133405681546491,0.3705982414144101,0.345803812258098,0.024794429156312137,,
54,54,2.4749861657619476,1.2782565355300903,5,2.5917374864943006,0.4400947971129865,0.4200948328553606,0.019999964257625902,,,2.7409583322611213,0.4980442496502288,0.4442820457145384,0.05376220393569042,,,2.082369149614177,0.5279227934440979,0.3375312987557279,0.19039149468836997,,,2.173077516341462,0.3960251381041309,0.3522342215468882,0.04379091655724271,,
55,55,2.5134004056453705,1.2963237762451172,4,2.6014798465616273,0.44167401969368386,0.421673972388368,0.02000004730531585,,,2.7501592095074137,0.5009989460575379,0.44577341627542505,0.05522552978211287,,,2.154795132653454,0.563254486068703,0.34927082924360364,0.21398365682509934,,,2.2381021216829735,0.42656160108951313,0.362774062427678,0.06378753866183512,,
56,56,2.5507350862026215,1.3139312267303467,3,2.6127336131504117,0.44349803244136177,0.42349809586489473,0.019999936576467037,,,2.761027768487428,0.5037794005593664,0.4475351014352379,0.05624429912412854,,,2.238593380633496,0.5817659010403853,0.36285369061061856,0.21891221042976672,,,2.3338198481707066,0.45309220833773345,0.3782889525427837,0.07480325579494973,,
57,57,2.5875199735164642,1.3299002647399902,2,2.623261407703253,0.4452045895131212,0.42520454650507655,0.020000043008044643,,,2.7715547705354493,0.5054879071823243,0.4492414236182818,0.05624648356404249,,,2.3345813943910456,0.5872119682103695,0.3784123916001003,0.20879957661026916,,,2.448857268002913,0.47511368905717866,0.39693537252488287,0.07817831653229579,,
58,58,2.624112695455551,1.3428454399108887,2,2.6275206480964273,0.44589490817187605,0.4258949269507758,0.01999998122110025,,,2.7765251817359347,0.5043983167300871,0.4500470777685849,0.05435123896150218,,,2.4377341436533597,0.584576185890115,0.3951324248541388,0.18944376103597615,,,2.5702661266711315,0.49479716193072043,0.41661453928276876,0.07818262264795167,,
59,59,2.660510152578354,1.3512725830078125,2,2.6219725972743566,0.44499567575636556,0.42499564317110433,0.02000003258526123,,,2.7724300847560515,0.49965410911112024,0.44938330333531173,0.0502708057758085,,,2.5437123993680553,0.5758136893288696,0.412310444562064,0.16350324476680556,,,2.690721529916399,0.512462956349843,0.4361391604130103,0.07632379593683264,,
60,60,2.6964758336544037,1.3542430400848389,2,2.608676563379688,0.4428404984111186,0.4228404885052761,0.020000009905842497,,,2.7610149851476344,0.49201371421984763,0.44753302938317946,0.04448068483666817,,,2.6523333923936,0.562453317557828,0.42991682566641426,0.13253649189141375,,,2.8083452922105687,0.5266024171200905,0.4552048007482227,0.07139761637186776,,
61,61,2.7322696149349213,1.352334976196289,2,2.593394550970767,0.4403633943946511,0.4203634265026337,0.019999967892017412,,,2.747546391852298,0.48351672422684,0.44534990455719464,0.03816681966964536,,,2.765656095428543,0.5470743352088762,0.44828530713425635,0.09878902807461981,,,2.9255366320105916,0.5391236107378156,0.47420034970406205,0.06492326103375351,,
62,62,2.768603652715683,1.345841884613037,2,2.576841273534195,0.43768030170535666,0.41768030510080856,0.019999996604548098,,,2.732650662160888,0.47440133600252665,0.4429354551356848,0.03146588086684188,,,2.8792394620938073,0.5327347382098716,0.4666960395803637,0.0660386986295079,,,3.0383309716390383,0.5504799228400886,0.49248318872621055,0.05799673411387807,,
63,63,2.805903285741806,1.3338956832885742,2,2.5573310369877764,0.4345178162590157,0.41451789007859013,0.019999926180425565,,,2.7147625931866766,0.4635058323681504,0.4400359773201321,0.023469855048018295,,,2.9822044906244223,0.5193548552179521,0.4833856451734922,0.03596921004445991,,,3.1378885079337753,0.5566038377125009,0.508620473766526,0.04798336394597491,,
64,64,2.84452423453331,1.3292981386184692,2,2.537479507040856,0.44378019091760834,0.4113001547954326,0.03248003612217576,,,2.696371144152424,0.46323392167319394,0.4370549066105121,0.026179015062681832,,,3.06597085580147,0.5169633658389299,0.49696333865569453,0.020000027183235347,,,3.218098415677727,0.5667851022915468,0.5216217009211394,0.04516340137040742,,
65,65,2.884610027074814,1.336511254310608,2,2.5255611411611136,0.46770417519542123,0.40936830639325056,0.058335868802170676,,,2.685418043004495,0.47611672118938814,0.4352795180073203,0.04083720318206785,,,3.1291536556730883,0.5272046955018713,0.5072046412141971,0.020000054287674263,,,3.279138197034887,0.5831478561446038,0.5315156415229128,0.0516322146216911,,
66,66,2.9263435304164886,1.3419567346572876,2,2.5279287175674816,0.48949259142453067,0.40975206694766175,0.07974052447686891,,,2.6879460358669633,0.4850814868649631,0.4356892804715175,0.049392206393445603,,,3.1732419514071006,0.5343509529803401,0.514350914833255,0.020000038147085064,,,3.3234076175222897,0.5898060933430141,0.5386912736604926,0.05111481968252152,,
67,67,2.9697585999965668,1.347400188446045,2,2.5468933567738743,0.5089229023749856,0.4128260460752115,0.0960968562997741,,,2.70567948429587,0.4886259644413115,0.4385636958366969,0.0500622686046146,,,3.2042646604239984,0.5393793611923399,0.5193793869787123,0.019999974213627536,,,3.356199065035764,0.5897870648683711,0.5440064406996096,0.0457806241687615,,
68,68,3.014073222875595,1.353263258934021,2,2.5806131412763187,0.5276574796395215,0.4182916872940041,0.10936579234551735,,,2.73530063654812,0.4864655054677533,0.4433649895901102,0.043100515877643075,,,3.232561362093309,0.5439660548321044,0.523966000484159,0.020000054347945384,,,3.385629187419579,0.5908194512815133,0.5487767704140071,0.04204268086750618,,
69,69,3.057683080434799,1.3608250617980957,8,2.627641298465116,0.5504284554796796,0.42591448317386255,0.12451397230581701,,,2.7731394601910253,0.48368053603935857,0.4494982860279417,0.03418225001141689,,,3.264929680937835,0.5492126196081061,0.5292125825804008,0.020000037027705253,,,3.4174386384898066,0.5978543482809998,0.5539327656103582,0.04392158267064161,,
