frame,phase,pelvis_tx,pelvis_ty,ncon,r_heel_btm_x,r_heel_btm_z,r_heel_btm_terrain_z,r_heel_btm_clearance,r_heel_btm_surface,r_heel_btm_edge_margin,r_toe_btm_x,r_toe_btm_z,r_toe_btm_terrain_z,r_toe_btm_clearance,r_toe_btm_surface,r_toe_btm_edge_margin,l_heel_btm_x,l_heel_btm_z,l_heel_btm_terrain_z,l_heel_btm_clearance,l_heel_btm_surface,l_heel_btm_edge_margin,l_toe_btm_x,l_toe_btm_z,l_toe_btm_terrain_z,l_toe_btm_clearance,l_toe_btm_surface,l_toe_btm_edge_margin
0,0,0.37038813903927803,0.9420135617256165,8,0.01642521669195659,0.1041701851249304,0.002662364030607911,0.10150782109432249,,,0.1659048391757721,0.04689154751863793,0.026891522018194464,0.020000025500443466,,,0.6148310107264781,0.14800425231092196,0.09965798312189525,0.04834626918902671,,,0.7611636793639528,0.2129022485416641,0.12337705123465027,0.08952519730701382,,
1,1,0.39749879390001297,0.9501913189888,8,0.05956531915898557,0.13588223625857937,0.009654944965092737,0.12622729129348664,,,0.19573771673585888,0.05172715415144705,0.03172713433522403,0.020000019816223014,,,0.6285882356443359,0.1439988044778175,0.10188789225911982,0.04211091221869767,,,0.7730735056242389,0.21291184070380195,0.1253075154495731,0.08760432525422884,,
2,2,0.41449514776468277,0.9458242654800415,8,0.10066503592531932,0.15843403148973342,0.016316799699736446,0.14211723178999697,,,0.2239240983824648,0.05629587461610744,0.03629586606377765,0.020000008552329786,,,0.6233810784682611,0.1216577132887864,0.10104386394416356,0.020613849344622834,,,0.7669391172335456,0.19248206854767974,0.12431319218995009,0.06816887635772965,,
3,3,0.44033340364694595,0.9652175903320312,4,0.1598792967770424,0.19939860414156357,0.025914841609762672,0.1734837625318009,,,0.2806295068460475,0.09430632892469225,0.04548724798985611,0.04881908093483614,,,0.6181019966843221,0.12018819327572057,0.10018817736664162,0.020000015909078947,,,0.7617160022084546,0.19089899308702113,0.12346657726660848,0.06743241582041265,,
4,4,0.4745876416563988,0.9852555394172668,2,0.23509318281726024,0.23175754551241642,0.03810626340657702,0.1936512821058394,,,0.3622427010829996,0.13450529817309537,0.058715933908251444,0.07578936426484392,,,0.6114086431044385,0.11910324171392678,0.09910325141714416,0.01999999029678262,,,0.7561123052920076,0.18755651011781255,0.12255827380927371,0.06499823630853883,,
5,5,0.517201840877533,1.0029349327087402,2,0.3250515919930646,0.25128572225798157,0.05268762554821952,0.19859809670976206,,,0.4620464684608865,0.16847628114661956,0.07489313055468383,0.09358315059193573,,,0.6046043769425501,0.11800037207379888,0.09800034764279301,0.02000002443100586,,,0.7512060756856805,0.1822883317103215,0.12176302285613498,0.06052530885418651,,
6,6,0.5643942505121231,1.0164892673492432,2,0.43059514557703377,0.2566850034370163,0.06979518437038722,0.18688981906662905,,,0.5780359359081009,0.1943455040375074,0.09369386797278151,0.10065163606472588,,,0.6018924459482139,0.11756080064650787,0.09756077063944382,0.020000030007064046,,,0.7505515081269194,0.1769365792598367,0.12165692397435268,0.05527965528548401,,
7,7,0.6101399660110474,1.0258431434631348,2,0.5484258174529331,0.2522523349125631,0.08889436268797861,0.16335797222458448,,,0.7040892061141243,0.2149172391887441,0.11412584758260665,0.10079139160613747,,,0.6023037950744747,0.11762747581883276,0.09762744623577341,0.020000029583059353,,,0.7527720885895615,0.172256154394222,0.12201685795036556,0.050239296443856454,,
8,8,0.6521187126636505,1.0316377878189087,2,0.6742018254388131,0.2445083847014968,0.10928140085345023,0.13522698384804657,,,0.8340038785642188,0.23511137383405328,0.13518372203662934,0.09992765179742394,,,0.6031899731273672,0.11777105091736316,0.09777108687181388,0.01999996404554928,,,0.7551698928221207,0.168041359298875,0.12240551813433324,0.045635841164541766,,
9,9,0.690950870513916,1.0345861911773682,2,0.8043166430541585,0.23997145207592463,0.13037171684531426,0.10959973523061037,,,0.9632192923581734,0.2593350268650856,0.156128253627108,0.10320677323797758,,,0.6039211641817138,0.11788966264096058,0.09788960565906056,0.020000056981900022,,,0.7571688335823752,0.1641514366504953,0.12272952652212053,0.041421910128374775,,
10,10,0.7283236980438232,1.0348083972930908,2,0.9314116859462072,0.24245287250098382,0.15097255743148816,0.09148031506949567,,,1.0848920699490225,0.2879366238914779,0.17585019901371984,0.11208642487775805,,,0.603263840629623,0.11778301473960592,0.09778306005820922,0.019999954681396703,,,0.7577277684582876,0.1598055673334925,0.12282012429851456,0.03698544303497793,,
11,11,0.7681611776351929,1.0318201780319214,2,1.0462022793587429,0.24943855683852004,0.1695789693093498,0.07985958752917025,,,1.1919505650581004,0.31563853443632683,0.19320331476829009,0.12243521966803675,,,0.6004746306633094,0.11733094550783575,0.09733095690320104,0.019999988604634714,,,0.7563345015986304,0.15383711727036622,0.12259428961750206,0.031242827652864166,,
12,12,0.8149875998497009,1.0244083404541016,2,1.1398553806284895,0.25184803252372756,0.18475920424028708,0.06708882828344048,,,1.2789550711355409,0.33107098273736807,0.20730587863856265,0.12376510409880542,,,0.5963419840428166,0.11666105690574342,0.0966610960471795,0.019999960858563925,,,0.7538701017481813,0.14511966015005115,0.12219483494716676,0.022924825202884386,,
13,13,0.8696310818195343,1.020643949508667,2,1.2056805411472518,0.2502867662758606,0.19542880714177968,0.054857959134080925,,,1.3430094976089404,0.3325409907056994,0.21768846318781304,0.11485252751788638,,,0.5941614447423792,0.12498153954929932,0.09630765234475003,0.02867388720454929,,,0.7533209773314685,0.1421058840290523,0.12210582734849681,0.02000005668055549,,
14,14,0.9280522167682648,1.0189805030822754,3,1.239785379744607,0.24228177625911637,0.20095686179421854,0.04132491446489783,,,1.3813602365758837,0.3169916128385464,0.22390473600099445,0.09308687683755193,,,0.5958877178350352,0.14045880223158183,0.09658746401938957,0.04387133821219226,,,0.7559523925691443,0.1425324227575025,0.12253235354962828,0.020000069207874213,,
15,15,0.9835520684719086,1.0176962614059448,8,1.247042466660955,0.231611119516787,0.20213316330277284,0.029477956214014167,,,1.3945233334486753,0.29385574796666936,0.2260383428996291,0.06781740506704026,,,0.5992676863684484,0.1602979999149915,0.09713532325416925,0.06316267666082225,,,0.758400729271836,0.1429292163134393,0.12292920454370106,0.020000011769738243,,
16,16,1.03158900141716,1.020166277885437,8,1.246831477020795,0.22574227849784642,0.20209896398355975,0.023643314514286667,,,1.3972662283853712,0.28046325672096556,0.22648293884963394,0.05398031787133162,,,0.6068079282663078,0.18555641305104664,0.09835752136500296,0.08719889168604368,,,0.7612321385215373,0.1433881404600961,0.12338814778224151,0.019999992677854586,,
17,17,1.0687184631824493,1.0291297435760498,8,1.2479221185438032,0.2256571913214624,0.20227574611164978,0.023381445209812612,,,1.3984915341234456,0.2800065332632273,0.22668154870573065,0.053324984557496624,,,0.6244784678464842,0.2161089000074692,0.10122173983237533,0.11488716017509389,,,0.7676075206469894,0.14442156478497264,0.12442153372597134,0.020000031059001305,,
18,18,1.0956303775310516,1.037782073020935,8,1.246123001076957,0.22198414382750903,0.201984127089484,0.02000001673802504,,,1.3958469918567729,0.2786209379805581,0.22625289474394397,0.05236804323661412,,,0.6532238237807253,0.24781743376195184,0.1058810757255707,0.14193635803638113,,,0.7768411436112816,0.14611316733751,0.1259182120415984,0.020194955295911615,,
19,19,1.1230659186840057,1.0534920692443848,8,1.2451584483497449,0.22182774905295133,0.20182778269934806,0.019999966353603266,,,1.3942124222148264,0.28020507970188285,0.22598794728529809,0.05421713241658477,,,0.7002551555345692,0.2889394055003851,0.11350438617080454,0.17543501932958055,,,0.8004053524588327,0.16405971375958053,0.12973773559626628,0.034321978163314254,,
20,20,1.1524502336978912,1.071173906326294,4,1.2454786560195685,0.22187963993765566,0.20187968517335808,0.019999954764297584,,,1.3941453291339287,0.2812363595150804,0.22597707216513166,0.055259287349948755,,,0.7637728852359694,0.32682369400834776,0.12379997751881369,0.20302371648953407,,,0.8504960744107136,0.1922722625460655,0.13785694272107554,0.054415319824989955,,
21,21,1.179210752248764,1.0883464813232422,4,1.2443384959712982,0.22169483714969654,0.20169487658552757,0.019999960564168973,,,1.392829476394338,0.2814897247633068,0.2257637855419373,0.05572593922136951,,,0.8369394084429771,0.3508368359275877,0.1356595421920985,0.2151772937354892,,,0.9291482265814045,0.219983738343277,0.15060567321250892,0.06937806513076808,,
22,22,1.2042630016803741,1.103372573852539,3,1.2437052758232037,0.22159222411500357,0.2015922379063941,0.01999998620860946,,,1.3923936859346617,0.28089447156550085,0.22569314824889675,0.0552013233166041,,,0.9223091168238385,0.35951891262743396,0.14949712163834064,0.21002179098909332,,,1.0303644618366106,0.2414128508199362,0.16701181683367466,0.07440103398626152,,
23,23,1.2304667532444,1.1151423454284668,2,1.240068145601256,0.22100269390977842,0.20100269532323342,0.019999998586544998,,,1.389736270177986,0.277786955390932,0.22526240762260055,0.05252454776833146,,,1.0167014122060467,0.3577705785381968,0.1647971725725346,0.19297340596566223,,,1.1426808191182947,0.2590072825750064,0.18521717967811713,0.07379010289688925,,
24,24,1.262944608926773,1.123334527015686,2,1.2336098790141485,0.21995584441095647,0.1999558746337985,0.019999969777157983,,,1.384938868636616,0.27215293998964923,0.2244847966148638,0.04766814337478542,,,1.1204261614525755,0.3492771275740574,0.1816099213268944,0.16766720624716297,,,1.2627157642488274,0.2759377199338209,0.204673648735723,0.07126407119809788,,
25,25,1.3042654693126678,1.1275681257247925,2,1.2267740426899822,0.21884788692090235,0.1988478536505809,0.020000033270321432,,,1.3800559480585302,0.26499609813505903,0.22369332382304508,0.04130277431201396,,,1.2351139591795182,0.33688100950457467,0.20019967104796646,0.1366813384566082,,,1.3887392204071778,0.29188902100903813,0.22510079578536826,0.06678822522366987,,
26,26,1.352119892835617,1.127981185913086,2,1.2232560690576924,0.21827758146856202,0.1982776251638041,0.019999956304757927,,,1.3783086795911985,0.2580731578692898,0.22341010900728453,0.034663048862005275,,,1.3608006526959078,0.3228362111047254,0.2205722322275058,0.10226397887721958,,,1.5200881011897112,0.3069456874550179,0.2463911411253643,0.06055454632965357,,
27,27,1.4017201364040375,1.125143051147461,2,1.2224708163466962,0.2181503315332023,0.19815034352046862,0.01999998801273367,,,1.3788792431944419,0.2522297089167107,0.2235025916845568,0.028727117232153904,,,1.4914964757823337,0.31047735428724504,0.24175672341941748,0.06872063086782756,,,1.651092777833882,0.32288784843870727,0.26762569440280504,0.05526215403590223,,
28,28,1.452436774969101,1.1183199882507324,2,1.2209990645864992,0.217911736996923,0.19791178721878822,0.019999949778134796,,,1.3785818730708925,0.24606592740080185,0.2234543909493359,0.022611536451465963,,,1.6152201729103568,0.3010049014090179,0.26181110243584665,0.03919379897317127,,,1.771386256253163,0.3361781065808597,0.28712406913152544,0.04905403744933429,,
29,29,1.506452053785324,1.1144871711730957,2,1.2191493728843865,0.22544887287611162,0.1976119706168051,0.027836902259306517,,,1.377875349788221,0.2462109594294019,0.2233398705621867,0.0228710888672152,,,1.7206797018059767,0.2989050445825518,0.2789050416929188,0.020000002889632995,,,1.8728839978153584,0.34849185910330005,0.3035758421212513,0.04491601698204872,,
30,30,1.5394926965236664,1.1213805675506592,2,1.2001496859821001,0.24711866048343284,0.19453231060682605,0.05258634987660679,,,1.359807988841795,0.2587042689005715,0.22041133130368612,0.0382929375968854,,,1.7801537398214131,0.3085451527976913,0.28854519089380243,0.019999961903888863,,,1.9300354169114948,0.364763323717715,0.3128395179286009,0.05192380578911415,,
31,31,1.5654966533184052,1.1237151622772217,2,1.1894539640074575,0.26307664222075045,0.19279864060412732,0.07027800161662312,,,1.349529640270151,0.26395861104618507,0.21874531337257438,0.04521329767361068,,,1.8120681688911857,0.3137181366114578,0.293718201978299,0.0199999346331588,,,1.9621387427717845,0.3694300987598698,0.31804314730142824,0.051386951458441577,,
32,32,1.608249992132187,1.1272165775299072,2,1.2142299961805358,0.27630750857524045,0.1968145886501029,0.07949291992513755,,,1.3738210462292983,0.2638296586852828,0.2226827083361488,0.04114695034913399,,,1.8462989889756927,0.31926674187500276,0.29926667697502957,0.02000006489997319,,,1.997916856240462,0.37061868649952734,0.3238424231446907,0.046776263354836645,,
33,33,1.6520366370677948,1.1322250366210938,4,1.2529345058986652,0.29005214860246553,0.20308820417849485,0.08696394442397068,,,1.409944770666723,0.25886277994708273,0.22853800427515994,0.030324775671922793,,,1.8778519913403566,0.32438116873021505,0.30438110439043803,0.020000064339777024,,,2.02989442240659,0.37446209375615563,0.329025668123661,0.045436425632494615,,
34,34,1.6956331431865692,1.1408417224884033,4,1.3005641715024319,0.3112443668612299,0.21080849858139603,0.10043586827983389,,,1.4506338455835073,0.2555299809948587,0.2351332980559845,0.020396682938874172,,,1.911469324420774,0.3298300937294355,0.3098301392541362,0.019999954475299286,,,2.062479012961897,0.3829438758365083,0.3343073057101544,0.04863657012635392,,
35,35,1.7495376765727997,1.1563899517059326,4,1.3665939748723632,0.3466192530802085,0.22151127205082033,0.1251079810293882,,,1.5035264460005668,0.26370666015473887,0.2437066617732897,0.01999999838144917,,,1.9528964803905404,0.3372685906305465,0.31654506862236187,0.020723522008184614,,,2.1023436852092257,0.3946317568212041,0.3407689720293108,0.053862784791893326,,
36,36,1.790249079465866,1.1719486713409424,4,1.429435863358062,0.38583553487129485,0.23169731626914278,0.15413821860215207,,,1.5498039617380728,0.2803058213753959,0.25120778615028266,0.029098035225113228,,,1.9758471580147057,0.3402651652650377,0.32026514487648994,0.020000020388547757,,,2.123982968938249,0.4009346087219791,0.3442764843945195,0.05665812432745959,,
37,37,1.8102527558803558,1.1868250370025635,8,1.480284370581676,0.4197371088657709,0.23993935283895867,0.17979775602681225,,,1.5920548839409154,0.3051406351033227,0.25805623982017833,0.04708439528314434,,,1.9716202358899557,0.3395800201583748,0.3195800029002123,0.020000017258162472,,,2.119061740532667,0.4019178300937033,0.3434788022854096,0.058439027808293686,,
38,38,1.83744677901268,1.2029438018798828,4,1.543999599810014,0.44505427566354244,0.2502669568931892,0.19478731877035327,,,1.6608808096835186,0.33567519959163516,0.2692122368768339,0.06646296271480129,,,1.9664261184333043,0.3387380296005633,0.318738088193899,0.019999941406664334,,,2.113945995470811,0.4008901471721904,0.3426495909637035,0.05824055620848689,,
39,39,1.8710496127605438,1.2182245254516602,2,1.6222503793328948,0.45976057538306486,0.26295062887608406,0.1968099465069808,,,1.7506441204961307,0.3641569831333373,0.2837619755169826,0.08039500761635465,,,1.962102951155236,0.338037367670388,0.3180373458368702,0.02000002183351779,,,2.110330779674785,0.39848164532229485,0.34206360049071705,0.05641804483157781,,
40,40,1.908604472875595,1.2312266826629639,2,1.7131396991819332,0.46420996299098327,0.2776828823659875,0.1865270806249958,,,1.8538980364523103,0.3879728968889886,0.30049840688447643,0.08747449000451218,,,1.9584785218446503,0.33744993358546743,0.31744986194494024,0.020000071640527195,,,2.1079498361327644,0.39475024832123295,0.3416776732567532,0.053072575064479766,,
41,41,1.9477719962596893,1.2412261962890625,2,1.8150202953379744,0.46050046671641837,0.29419671227214406,0.1663037544442743,,,1.9661812619668384,0.40781876161182185,0.3186983993994553,0.08912036221236652,,,1.9560299771420917,0.337052982658015,0.3170529772361607,0.02000000542185426,,,2.1070748556767267,0.39006660875454424,0.34153584763963485,0.04853076111490939,,
42,42,1.9866386353969574,1.247949242591858,2,1.9260422710975345,0.45261945442059115,0.31219226876389017,0.14042718565670098,,,2.0837960816674856,0.4254397704632103,0.337762590229326,0.08767718023388432,,,1.9549169006224505,0.33687261075891073,0.316872558618569,0.02000005214034173,,,2.1076038534493784,0.3849526933353478,0.34162159290976385,0.04333110042558397,,
43,43,2.024951070547104,1.2516106367111206,2,2.043088162733433,0.44499875067114947,0.33116424202098865,0.11383450865016081,,,2.203155144988722,0.4431116387144296,0.35710950557742777,0.08600213313700183,,,1.9542176924006993,0.33675923019434983,0.31675922392993705,0.020000006264412784,,,2.10841398220811,0.3797534639119987,0.34175290671267183,0.03800055719932688,,
44,44,2.0632884204387665,1.2528574466705322,2,2.1633593811350855,0.44122578562252124,0.3506590086225612,0.09056677699996002,,,2.3218899678183864,0.4634305838742619,0.3763552377592809,0.08707534611498097,,,1.9541187818430077,0.3367432632654824,0.31674319151368435,0.02000007175179802,,,2.109599361412796,0.3748324916178082,0.3419450448753745,0.03288744674243366,,
45,45,2.1017799079418182,1.2521401643753052,2,2.2820117300070377,0.44353640780341314,0.3698913725973099,0.07364503520610322,,,2.435919628707773,0.4875518441545178,0.3948383100540281,0.09271353410048971,,,1.9542379694812932,0.3367624777388174,0.3167625106427416,0.01999996709607582,,,2.1107902600436335,0.3701747550240625,0.34213807768208293,0.028036677341979566,,
46,46,2.142225593328476,1.2484095096588135,2,2.3904223913441194,0.4490710847483684,0.38746366102986396,0.06160742371850442,,,2.5380998306235845,0.5108478908295128,0.41140070306977,0.09944718775974276,,,1.9525348321292924,0.3364864224744007,0.31648644904123024,0.019999973433170448,,,2.1101465351342386,0.36447840424392236,0.3420337362857701,0.022444667958152253,,
47,47,2.187049001455307,1.245804786682129,2,2.48037177782166,0.4568391036225966,0.40204356068198394,0.054795542940612674,,,2.623007560174918,0.5295029417644166,0.4251634003490548,0.10433954141536178,,,1.95020730281525,0.3412163684126587,0.31610917972161595,0.025107188691042726,,,2.108951329771001,0.361839992930003,0.3418400054006347,0.019999987529368324,,
48,48,2.2355525195598602,1.2445361614227295,2,2.5447931469688663,0.46172168906260386,0.4124856229839094,0.04923606607869446,,,2.6864560867161416,0.5362643699354849,0.4354477745540628,0.10081659538142207,,,1.9504152817134397,0.35143963546907087,0.3161428910295427,0.03529674443952818,,,2.110142484840944,0.36203305684324893,0.342033079773568,0.01999997706968093,,
49,49,2.285360425710678,1.243990182876587,4,2.580194366147708,0.4604898617433254,0.4182238080166566,0.042266053726668806,,,2.7249666294953263,0.5287979254818029,0.4416899499735626,0.08710797550824034,,,1.9555461268526633,0.3659461042218659,0.31697454992339325,0.048971554298472664,,,2.115595570693273,0.36291699116175824,0.34291697067749544,0.020000020484262804,,
50,50,2.332143396139145,1.2448688745498657,5,2.588902187625845,0.45464720087943805,0.4196352591483607,0.035011941731077356,,,2.73748739568023,0.5142075551456438,0.4437194414653043,0.07048811368033947,,,1.9614971220027144,0.3860002685760829,0.31793914696530484,0.06806112161077804,,,2.120004676024604,0.36363164552398164,0.3436316427370151,0.020000002786966564,,
51,51,2.3745966851711273,1.2481637001037598,5,2.587318195023434,0.4485616654572388,0.4193785097240762,0.029183155733162602,,,2.7377604941902454,0.5032618893810471,0.4437637080137166,0.05949818136733048,,,1.970037794725823,0.413392353056215,0.31932350494862044,0.09406884810759458,,,2.1223068741230873,0.36400483076207546,0.3440048061188862,0.020000024643189285,,
52,52,2.412499040365219,1.2543959617614746,5,2.5876231745020886,0.44420565211583574,0.4194279438599705,0.024777708255865227,,,2.7382765726990326,0.4983217633052054,0.4438473591998491,0.05447440410535631,,,1.9913762392998215,0.44714101136495843,0.32278225428315765,0.12435875708180077,,,2.1288079735145637,0.3650586250003418,0.34505856957929454,0.02000005542104727,,
53,53,2.4436350762844086,1.2624982595443726,5,2.5887533027740646,0.4396111121293359,0.4196111263967802,0.01999998573255568,,,2.7387350574772067,0.4955617432816258,0.4439216750158827,0.05164006826574308,,,2.0282559069438504,0.48443163926196553,0.32876008108676497,0.15567155817520056,,,2.142232414181989,0.37202899127793077,0.34723453770405516,0.024794453573875608,,
54,54,2.4760588109493256,1.278430461883545,5,2.5928101316816785,0.44026872346283463,0.42026869795668853,0.020000025506146102,,,2.742030977448499,0.49821817600007695,0.44445591081586633,0.05376226518421062,,,2.083441794801555,0.528096719793946,0.3377051638570558,0.19039155593689022,,,2.17415016152884,0.39619906445397907,0.35240808664821616,0.04379097780576291,,
55,55,2.5083249509334564,1.2955011129379272,4,2.5964043918497133,0.4408513564035527,0.4208512917310957,0.02000006467245702,,,2.7450837547954996,0.5001762827674068,0.4449507356181527,0.055225547149254095,,,2.14971967794154,0.5624318227785718,0.34844814858633133,0.21398367419224051,,,2.2330266669710594,0.425738937799382,0.3619513817704057,0.06378755602897629,,
56,56,2.5344408452510834,1.3112901449203491,3,2.5964393721988737,0.44085695068612973,0.4208569616972903,0.019999988988839423,,,2.7447335275358897,0.5011383188041344,0.4448939672676334,0.05624435153650098,,,2.222299139681958,0.5791248192851532,0.36021255644301414,0.2189122628421391,,,2.3175256072191686,0.4504511265825014,0.3756478183751793,0.07480330820732212,,
57,57,2.559027522802353,1.3252818584442139,2,2.5947689569891415,0.4405861833131122,0.4205862040291282,0.019999979283984004,,,2.743062319821338,0.5008695009823153,0.44462308114233345,0.056246419839981854,,,2.3060889436769343,0.5825935620103603,0.373794049124152,0.2087995128862083,,,2.4203648172888017,0.47049528285716946,0.39231703004893453,0.07817825280823493,,
58,58,2.5864079892635345,1.3367339372634888,2,2.5898159419044107,0.43978340565120416,0.41978336961592355,0.02000003603528061,,,2.738820475543918,0.4982868142094152,0.4439355204337327,0.054351293775682485,,,2.400029437461343,0.578464683369443,0.3890208675192866,0.1894438158501564,,,2.532561420479115,0.4886856594100485,0.4105029819479165,0.07818267746213198,,
59,59,2.6212943494319916,1.3449159860610962,2,2.5827567941279943,0.4386390789414596,0.41863915207047836,0.019999926870981233,,,2.733214281609689,0.49329751229621427,0.44302681223468576,0.050270700061528506,,,2.504496596221693,0.5694570925139636,0.40595395346143803,0.16350313905252556,,,2.651505726770037,0.506106359534937,0.4297826693123843,0.0763236902225527,,
60,60,2.6645632684230804,1.3490703105926514,2,2.5767639981483645,0.4376677690261927,0.41766777953042833,0.01999998949576437,,,2.729102419916311,0.4868409848349217,0.4423603204083317,0.044480664426590044,,,2.6204208271622766,0.557280588172902,0.4247441166915665,0.13253647148133557,,,2.7764327269792455,0.5214296877351645,0.45003209177337494,0.07139759596178957,,
61,61,2.7129262387752533,1.349199652671814,2,2.5740511748110992,0.4372280709351902,0.41722805788717804,0.02000001304801219,,,2.72820301569263,0.4803814007673791,0.442214535941739,0.038166864825640134,,,2.746312719268875,0.5439390117494153,0.44514993851880075,0.09878907323061453,,,2.9061932558509236,0.5359882872783547,0.4710649810886064,0.06492330618974829,,
62,62,2.7638705670833588,1.3450746536254883,2,2.5721081879018706,0.4369130707337171,0.4169131190613417,0.019999951672375393,,,2.7279175765285637,0.4736341050308871,0.4421682690962179,0.03146583593466917,,,2.874506376461483,0.531967507238232,0.4659288535408968,0.06603865369733525,,,3.033597886006714,0.5497126918684491,0.4917160026867437,0.05799668918170536,,
63,63,2.8181136548519135,1.3358749151229858,2,2.569541406097884,0.4364970480523859,0.41649706929606223,0.0199999787563237,,,2.726972962296784,0.46548506416152063,0.4420151565376042,0.02346990762391643,,,2.9944148597345297,0.5213340870113223,0.4853648243909643,0.035969262620358045,,,3.1500988770438827,0.5585830695058711,0.510599652983998,0.0479834165218731,,
64,64,2.8552518784999847,1.331036925315857,2,2.5482071510075306,0.44551897757894066,0.41303899903509667,0.03247997854384399,,,2.7070987881190987,0.46497270833452625,0.4387937508501762,0.026178957484350063,,,3.076698499768145,0.5187021525002622,0.4987021828953586,0.019999969604903578,,,3.2288260596444016,0.5685238889528791,0.5233605451608034,0.04516334379207565,,
65,65,2.884610027074814,1.3365111351013184,2,2.5255611411611136,0.4677040559861341,0.40936830639325056,0.05833574959288357,,,2.685418043004495,0.47611660198010103,0.4352795180073203,0.04083708397278074,,,3.1291536556730883,0.5272045762925842,0.5072046412141971,0.019999935078387154,,,3.279138197034887,0.5831477369353167,0.5315156415229128,0.05163209541240399,,
66,66,2.9263435304164886,1.3419567346572876,2,2.5279287175674816,0.48949259142453067,0.40975206694766175,0.07974052447686891,,,2.6879460358669633,0.4850814868649631,0.4356892804715175,0.049392206393445603,,,3.1732419514071006,0.5343509529803401,0.514350914833255,0.020000038147085064,,,3.3234076175222897,0.5898060933430141,0.5386912736604926,0.05111481968252152,,
67,67,2.9697585999965668,1.347400188446045,2,2.5468933567738743,0.5089229023749856,0.4128260460752115,0.0960968562997741,,,2.70567948429587,0.4886259644413115,0.4385636958366969,0.0500622686046146,,,3.2042646604239984,0.5393793611923399,0.5193793869787123,0.019999974213627536,,,3.356199065035764,0.5897870648683711,0.5440064406996096,0.0457806241687615,,
68,68,3.014073222875595,1.3532631397247314,2,2.5806131412763187,0.5276573604302344,0.4182916872940041,0.10936567313623025,,,2.73530063654812,0.4864653862584662,0.4433649895901102,0.04310039666835597,,,3.232561362093309,0.5439659356228173,0.523966000484159,0.019999935138658276,,,3.385629187419579,0.5908193320722261,0.5487767704140071,0.04204256165821907,,
69,69,3.057683080434799,1.3608250617980957,8,2.627641298465116,0.5504284554796796,0.42591448317386255,0.12451397230581701,,,2.7731394601910253,0.48368053603935857,0.4494982860279417,0.03418225001141689,,,3.264929680937835,0.5492126196081061,0.5292125825804008,0.020000037027705253,,,3.4174386384898066,0.5978543482809998,0.5539327656103582,0.04392158267064161,,
