frame,phase,pelvis_tx,pelvis_ty,ncon,r_heel_btm_x,r_heel_btm_z,r_heel_btm_terrain_z,r_heel_btm_clearance,r_heel_btm_surface,r_heel_btm_edge_margin,r_toe_btm_x,r_toe_btm_z,r_toe_btm_terrain_z,r_toe_btm_clearance,r_toe_btm_surface,r_toe_btm_edge_margin,l_heel_btm_x,l_heel_btm_z,l_heel_btm_terrain_z,l_heel_btm_clearance,l_heel_btm_surface,l_heel_btm_edge_margin,l_toe_btm_x,l_toe_btm_z,l_toe_btm_terrain_z,l_toe_btm_clearance,l_toe_btm_surface,l_toe_btm_edge_margin
0,64,-1.0820986032485962,0.9111983776092529,2,-1.1710991606417958,0.0598822552481583,0.0,0.0598822552481583,,,-1.0115991982546355,0.04628953694636079,0.0,0.04628953694636079,,,-1.3465493181846442,0.019999974733413382,0.0,0.019999974733413382,,,-1.186480891635634,0.021760321857024575,0.0,0.021760321857024575,,
1,65,-1.0423650741577148,0.9046861529350281,2,-1.0403255467534775,0.02898527444126177,0.0,0.02898527444126177,,,-0.8812066130598345,0.04648284362960235,0.0,0.04648284362960235,,,-1.342820252675635,0.02165682494364593,0.0,0.02165682494364593,,,-1.1827507209991392,0.020000012113691873,0.0,0.020000012113691873,,
2,66,-1.0015366077423096,0.9036126732826233,2,-0.920587144860637,0.020000007646622547,0.0,0.020000007646622547,,,-0.7666901004210788,0.06405338018816567,0.0,0.06405338018816567,,,-1.3443706059362952,0.03304849620027617,0.0,0.03304849620027617,,,-1.1844464154822274,0.026030426268421728,0.0,0.026030426268421728,,
3,67,-0.9593746662139893,0.9008644819259644,2,-0.8263905928741706,0.019999977226110275,0.0,0.019999977226110275,,,-0.6788689895709548,0.08214799729648938,0.0,0.08214799729648938,,,-1.3503228461159573,0.048058329580675255,0.0,0.048058329580675255,,,-1.1909495967397246,0.03305275148707984,0.0,0.03305275148707984,,
4,68,-0.9160321950912476,0.8971258401870728,2,-0.7619628033388282,0.020000008909830655,0.0,0.020000008909830655,,,-0.6171655637799723,0.08825511291625199,0.0,0.08825511291625199,,,-1.3503814034877972,0.06418356630349982,0.0,0.06418356630349982,,,-1.1922580471823958,0.039243554977935274,0.0,0.039243554977935274,,
5,69,-0.8710540533065796,0.8959823250770569,2,-0.7204166405532872,0.02000001972674241,0.0,0.02000001972674241,,,-0.5722615865752962,0.0806224564013413,0.0,0.0806224564013413,,,-1.334871014173613,0.08069169309616962,0.0,0.08069169309616962,,,-1.1791778558964068,0.043480936476006135,0.0,0.043480936476006135,,
6,70,-0.8239998817443848,0.8938041925430298,2,-0.6854292927322891,0.01999997417180688,0.0,0.01999997417180688,,,-0.5313238377220113,0.06331866134319605,0.0,0.06331866134319605,,,-1.3002835756346178,0.09273285924991541,0.0,0.09273285924991541,,,-1.1496577358431097,0.038540089757060664,0.0,0.038540089757060664,,
7,71,-0.7752261161804199,0.8927343487739563,5,-0.6524390528514213,0.02000000055404135,0.0,0.02000000055404135,,,-0.49522624617338235,0.05015183928254909,0.0,0.05015183928254909,,,-1.254626910406494,0.11027264049449306,0.0,0.11027264049449306,,,-1.1161345853057967,0.029992657803158046,0.0,0.029992657803158046,,
8,72,-0.7264032363891602,0.8957614898681641,7,-0.6236950942484918,0.020000027907612707,0.0,0.020000027907612707,,,-0.465876976865549,0.046803792492246865,0.0,0.046803792492246865,,,-1.1975920895640264,0.14038873480686487,0.0,0.14038873480686487,,,-1.0825840926606354,0.029041709098526186,0.0,0.029041709098526186,,
9,73,-0.6795995235443115,0.9020557403564453,8,-0.597600171970503,0.020000013308994216,0.0,0.020000013308994216,,,-0.44033104290929626,0.0498566877279664,0.0,0.0498566877279664,,,-1.1227925093073277,0.175027165808914,0.0,0.175027165808914,,,-1.0354298843006906,0.04089003073531128,0.0,0.04089003073531128,,
10,74,-0.6352934837341309,0.9102729558944702,7,-0.5770450370927928,0.020000007003640394,0.0,0.020000007003640394,,,-0.42056404374534245,0.05374461655496159,0.0,0.05374461655496159,,,-1.0373621632657162,0.20293449881108966,0.0,0.20293449881108966,,,-0.9643465824859017,0.06047845604081781,0.0,0.06047845604081781,,
11,75,-0.5925958156585693,0.919120192527771,4,-0.5677804545954797,0.019999993160698372,0.0,0.019999993160698372,,,-0.4115848393181169,0.05504182126942285,0.0,0.05504182126942285,,,-0.9525869114709588,0.21685980827007212,0.0,0.21685980827007212,,,-0.8731055486993392,0.07790761443623151,0.0,0.07790761443623151,,
12,76,-0.5510978698730469,0.9264228343963623,2,-0.5669552100585374,0.02000002614989505,0.0,0.02000002614989505,,,-0.4105536343840243,0.05411083203710576,0.0,0.05411083203710576,,,-0.8655546380488159,0.21311206664864352,0.0,0.21311206664864352,,,-0.7683300096092811,0.0859414294948797,0.0,0.0859414294948797,,
13,77,-0.5104048252105713,0.9313923716545105,2,-0.5679975296074852,0.019999995037332734,0.0,0.019999995037332734,,,-0.41117761209771686,0.05213274203177869,0.0,0.05213274203177869,,,-0.7702194076340242,0.19264348953596463,0.0,0.19264348953596463,,,-0.6524057402608332,0.08426941840733491,0.0,0.08426941840733491,,
14,78,-0.4701392650604248,0.9340625405311584,2,-0.5671179674033285,0.020000010433908404,0.0,0.020000010433908404,,,-0.40983177796692727,0.049766679307499645,0.0,0.049766679307499645,,,-0.6625226978700317,0.1596988283612041,0.0,0.1596988283612041,,,-0.5256046481077968,0.07676242282031172,0.0,0.07676242282031172,,
15,79,-0.4298882484436035,0.934493899345398,2,-0.5650986594091028,0.020000021848198303,0.0,0.020000021848198303,,,-0.4073037881489582,0.04694029975869668,0.0,0.04694029975869668,,,-0.5418909995910652,0.12136200603779904,0.0,0.12136200603779904,,,-0.3906623242451993,0.06887498250927288,0.0,0.06887498250927288,,
16,80,-0.38906288146972656,0.9327378869056702,2,-0.5625523857140479,0.020000023121988644,0.0,0.020000023121988644,,,-0.4042139145152389,0.043535709121156306,0.0,0.043535709121156306,,,-0.4102149882050043,0.08562013572512393,0.0,0.08562013572512393,,,-0.2511759457392614,0.06741071624431069,0.0,0.06741071624431069,,
17,81,-0.34690117835998535,0.9287975430488586,2,-0.558869970355433,0.020000012413432307,0.0,0.020000012413432307,,,-0.3999528183316231,0.039244200556417655,0.0,0.039244200556417655,,,-0.2737612385333347,0.06100418717794493,0.0,0.06100418717794493,,,-0.11449309172391686,0.07708701656728725,0.0,0.07708701656728725,,
18,82,-0.3036017417907715,0.922400176525116,2,-0.5540003752039888,0.02000001438343648,0.0,0.02000001438343648,,,-0.3945159925253752,0.03377432648070406,0.0,0.03377432648070406,,,-0.14597287403625628,0.051409839476787636,0.0,0.051409839476787636,,,0.0076914731078332466,0.0962681534590139,0.0012467111837076153,0.09502144227530629,,
19,83,-0.2597239017486572,0.9134282469749451,2,-0.5466864242083749,0.02000001798157848,0.0,0.02000001798157848,,,-0.3867558635856837,0.026871391712758437,0.0,0.026871391712758437,,,-0.04100573493874657,0.05063440336384901,0.0,0.05063440336384901,,,0.10510526083464633,0.11602994401265372,0.017036515932898257,0.09899342807975546,,
20,84,-0.2149491310119629,0.9040268659591675,2,-0.5372812522119843,0.02312324900731366,0.0,0.02312324900731366,,,-0.3772336175645178,0.020000006566109875,0.0,0.020000006566109875,,,0.028635177844005034,0.04771079105544085,0.004641477122141889,0.04306931393329896,,,0.17091120840108653,0.12107652492143725,0.02770300460618045,0.09337352031525681,,
21,85,-0.16820025444030762,0.9015083312988281,4,-0.5282733003629657,0.039354384696027395,0.0,0.039354384696027395,,,-0.3693695350761398,0.019999970157369706,0.0,0.019999970157369706,,,0.05983514614166979,0.04253408450959885,0.009698681231509102,0.032835403278089745,,,0.20543927311196625,0.10905053379643004,0.03329965999628953,0.0757508738001405,,
22,86,-0.11940670013427734,0.8974893689155579,5,-0.5210304647684598,0.06505115654012653,0.0,0.06505115654012653,,,-0.3674225453129088,0.019999996772978063,0.0,0.019999996772978063,,,0.0640205687649915,0.031350088312387184,0.010377096551940222,0.020972991760446962,,,0.21647713018546702,0.08015579270294647,0.035088786690847557,0.04506700601209891,,
23,87,-0.07011175155639648,0.9019454121589661,5,-0.5094842956917649,0.11383074371064125,0.0,0.11383074371064125,,,-0.3707411471280636,0.033985027092698364,0.0,0.033985027092698364,,,0.0569683416223984,0.029234014544188988,0.009234000772308222,0.020000013771880765,,,0.21364269716336776,0.06206915229491374,0.034629353328918165,0.027439798965995577,,
24,88,-0.02177620120346546,0.9069095849990845,7,-0.4779037865199575,0.17091941979277828,0.0,0.17091941979277828,,,-0.3659686579562093,0.05648373283141203,0.0,0.05648373283141203,,,0.049183335359520464,0.02797210420552819,0.007972128795758086,0.019999975409770103,,,0.2070511635687265,0.054481513617362004,0.03356093138490142,0.020920582232460586,,
25,89,0.02417444996535778,0.9134766459465027,2,-0.4151981993644326,0.21918068296892276,0.0,0.21918068296892276,,,-0.3296590266902312,0.0838734430334995,0.0,0.0838734430334995,,,0.04967630573952527,0.0280520198105459,0.008052034384371881,0.019999985426174018,,,0.20747962353602376,0.05494277774758382,0.03363038047813903,0.02131239726944479,,
26,90,0.06797075271606445,0.9220281839370728,2,-0.3298467106144578,0.24515355513850293,0.0,0.24515355513850293,,,-0.24927244624884784,0.10683223672204795,0.0,0.10683223672204795,,,0.05927118098138098,0.029607239465301187,0.009607268096119283,0.019999971369181906,,,0.21663559930697504,0.05895753434153428,0.03511447295709155,0.023843061384442726,,
27,91,0.11042380332946777,0.9315477609634399,2,-0.2302865278086433,0.24600139364172338,0.0,0.24600139364172338,,,-0.13235204809774026,0.11937660531495137,0.0,0.11937660531495137,,,0.07710214112725172,0.032497464115936806,0.012497489139401876,0.01999997497653493,,,0.23396983638834518,0.06439614968876078,0.03792418013898032,0.026471969549780462,,
28,92,0.15195798873901367,0.9400532245635986,2,-0.12148759520509927,0.22856362112616033,0.0,0.22856362112616033,,,9.288708763378895e-05,0.12443300182627297,1.5056071750044355e-05,0.12441794575452292,,,0.09514887140388972,0.035422658474740694,0.015422684371811341,0.019999974102929353,,,0.25183057032096134,0.06822273743566216,0.04081922721654743,0.027403510219114732,,
29,93,0.19291472434997559,0.9452702403068542,2,-0.008003552661557913,0.1992242759925559,0.0,0.1992242759925559,,,0.13307678882679733,0.1235847558443298,0.021570422024007132,0.10201433382032267,,,0.10495465322430635,0.03701209000135715,0.017012103939313943,0.019999986062043205,,,0.26205217510658796,0.06775893665657903,0.042476047545113846,0.025282889111465187,,
30,94,0.23358774185180664,0.9466396570205688,2,0.11197236611594015,0.16247623981325726,0.018149605302627384,0.14432663451062988,,,0.2657680136544363,0.11807017360112704,0.043078347963968124,0.07499182563715892,,,0.10784965385712622,0.037481367278874564,0.017481354707687743,0.02000001257118682,,,0.26574993783209966,0.063796767559003,0.043075418053202544,0.020721349505800457,,
31,95,0.2741515636444092,0.9497507810592651,2,0.24142860817430056,0.12982397976618723,0.039133172756116705,0.09069080701007053,,,0.4011195161457203,0.11869681003939925,0.06501747841684044,0.05367933162255881,,,0.10828166396290473,0.04246967218785221,0.017551379243013785,0.024918292944838428,,,0.26700154557526135,0.0632783041227528,0.043278291202355934,0.020000012920396867,,
32,96,0.3499999940395355,0.9620450735092163,2,0.3172770385694269,0.1421182719612041,0.051427447872799945,0.09069082408840416,,,0.4769679465408466,0.13099110223441612,0.07731175353352368,0.05367934870089244,,,0.18413009435803107,0.054763964382869144,0.02984565435969703,0.024918310023172116,,,0.3428499759703877,0.07557259631776973,0.055572566319039174,0.02000002999873056,,
33,97,0.37984147667884827,0.9641032814979553,2,0.42633207109302707,0.13337501399930027,0.0691041824567516,0.06427083154254867,,,0.5859259119257818,0.1458171183964353,0.09497275450108644,0.050844363895348854,,,0.18432821197667548,0.05893634045534594,0.029877767252427807,0.02905857320291813,,,0.34352798389356765,0.07568246269243242,0.05568246465042773,0.01999999804200469,,
34,98,0.41524574160575867,0.9647278785705566,2,0.5523523070430766,0.13278499313015718,0.08953080754270457,0.043254185587452615,,,0.7081823220713829,0.16941839811279819,0.11478930091184332,0.054629097200954865,,,0.18836254799017366,0.06319888025194245,0.030531692938229167,0.032667187313713285,,,0.34789618414535883,0.07639050365045129,0.056390506403968574,0.019999997246482715,,
35,99,0.4522174894809723,0.9632310271263123,2,0.6625420118425127,0.14013566924401777,0.10739146120123336,0.03274420804278441,,,0.8130551122097209,0.19464077446036893,0.13178813566027814,0.06285263880009079,,,0.19185774345486212,0.06732315483456293,0.031098229310908335,0.0362249255236546,,,0.3516432249885154,0.07699785830168453,0.05699786440411746,0.01999999389756707,,
36,100,0.4853149354457855,0.9608346819877625,2,0.7373892495383058,0.14839630738066198,0.11952345295323395,0.028872854427428027,,,0.8840987378285347,0.21243790226655695,0.14330359977857668,0.06913430248798028,,,0.19506022284782565,0.07146287048000767,0.031617319323812974,0.039845551156194696,,,0.35502271819347264,0.07754563968977994,0.0575456465928887,0.01999999309689124,,
37,101,0.5254430770874023,0.9580566883087158,3,0.7978375468098218,0.15472649103033864,0.12932151987590587,0.02540497115443277,,,0.9429871469753404,0.2222290345588543,0.1528488243727188,0.0693802101861355,,,0.19961773510779315,0.07855191853372985,0.0323560466683316,0.04619587186539825,,,0.35969564767068657,0.07830310232835386,0.05830308191876749,0.020000020409586365,,
38,102,0.5676692724227905,0.9573184847831726,8,0.8333388720480077,0.15718871669957787,0.13507593110381644,0.022112785595761436,,,0.9799670080433063,0.221416355325519,0.15884289153241982,0.0625734637930992,,,0.20873661095578452,0.08951782190402038,0.03383412561928755,0.05568369628473283,,,0.36851536546863806,0.07973264932759906,0.059732670329426155,0.019999978998172907,,
39,103,0.6059044599533081,0.9593770503997803,8,0.849909160532816,0.1586973249679188,0.13776180982713054,0.020935515140788258,,,0.9986918548428101,0.21776262551887787,0.16187800269914526,0.05588462281973261,,,0.22173528204840243,0.10335069135429825,0.03594108073663683,0.06740961061766143,,,0.3803354704709766,0.08164861281809714,0.061648591622059414,0.020000021196037727,,
40,104,0.6517423391342163,0.9644428491592407,8,0.8608749732102452,0.16050582133855112,0.13953925884264756,0.020966562495903562,,,1.0111762339098498,0.21559239780016745,0.16390159620149689,0.051690801598670566,,,0.23918878036085509,0.12711003467551388,0.03877011897624221,0.08833991569927166,,,0.39328178498519933,0.08374707988850509,0.06374706025952236,0.020000019628982735,,
41,105,0.6973700523376465,0.9720801711082458,5,0.8714447224375714,0.16195190884621696,0.14125250991769484,0.020699398928522128,,,1.021778275316169,0.21695029749036296,0.16562008151712884,0.05133021597323412,,,0.26548273932979993,0.15932123791454383,0.043032107837276845,0.11628913007726699,,,0.4078364019210859,0.0861062495273393,0.06610621870084489,0.020000030826494417,,
42,106,0.735119104385376,0.9807379245758057,5,0.8868053658731255,0.16374234730546317,0.14374231722658953,0.020000030078873632,,,1.036114201980998,0.22146471144565738,0.16794379244366803,0.05352091900198935,,,0.30669529765313325,0.19024064365539142,0.04971225306440827,0.14052839059098315,,,0.43216983853161905,0.09083672430840169,0.07005042641438367,0.02078629789401802,,
43,107,0.7765103578567505,0.9950822591781616,4,0.907717693315668,0.16713202163497784,0.14713199721824435,0.020000024416733486,,,1.0555191447675984,0.22861153685712093,0.1710891403961458,0.05752239646097512,,,0.3725903253573086,0.231302717271078,0.060393180740779165,0.17090953653029883,,,0.4757246759714946,0.10887598366360343,0.07711023175720659,0.03176575190639684,,
44,108,0.8155198097229004,1.0121561288833618,4,0.9260830505390255,0.1701088379597087,0.15010883870519265,0.019999999254516038,,,1.072731547567858,0.23428997341517088,0.173879099454536,0.06041087396063488,,,0.44831554368317533,0.27029347973451584,0.07266748440822764,0.19762599532628822,,,0.5401683974016093,0.13919026638351711,0.08755591714156273,0.05163434924195438,,
45,109,0.8478628396987915,1.0280120372772217,4,0.9401585172604601,0.1723903709478296,0.15239033166908866,0.020000039278740944,,,1.0861801084596439,0.2379853000598973,0.176058977227428,0.061926322832469294,,,0.5202378202636408,0.29395770246506436,0.08432536909604635,0.20963233336901801,,,0.6180220155093648,0.16721682313257982,0.10017521321479354,0.06704160991778628,,
46,110,0.8850170373916626,1.0466824769973755,2,0.9556345188987536,0.1748988941253644,0.1548988373936797,0.0200000567316847,,,1.1014686790901396,0.24090948070481624,0.17853710225246788,0.06237237845234836,,,0.6157497200526775,0.30766306088923334,0.09980689675332728,0.20785616413590607,,,0.7304461799076494,0.19599515332581202,0.11839805051907808,0.07759710280673394,,
47,111,0.9220256805419922,1.0634658336639404,2,0.9676365128374177,0.17684425646411847,0.15684424107127753,0.020000015392840936,,,1.1141651826256656,0.24129849416651938,0.1805950790184014,0.06070341514811797,,,0.7221792423884491,0.3096801864289527,0.11705806228591341,0.19262212414303925,,,0.8547263710185931,0.2199235245157827,0.1385426316674586,0.08138089284832412,,
48,112,0.9535781145095825,1.074764370918274,2,0.9715816643124655,0.17748373632900638,0.1574837108316741,0.02000002549733229,,,1.1195299603502147,0.23860903014895218,0.1814646560543647,0.057144374094587475,,,0.8181458734682383,0.3055219529135572,0.13261329735630167,0.17290865555725554,,,0.9631371021299571,0.2376799053303023,0.15611493140972882,0.08156497392057349,,
49,113,0.9898077249526978,1.083415150642395,2,0.9691633588261507,0.17709176308110267,0.1570917275986651,0.02000003548243756,,,1.119214789043742,0.23285526512944427,0.1814135699246917,0.05144169520475256,,,0.9342855557056086,0.2967589730776645,0.1514383830957443,0.1453205899819202,,,1.0893090968657315,0.2568503070999203,0.1765661550833303,0.08028415201659,,
50,114,1.0256249904632568,1.0869951248168945,2,0.9606515633996502,0.17571206850349227,0.15571205033751181,0.02000001816598046,,,1.1129337043229555,0.22505930201079327,0.18039546865105602,0.044663833359737254,,,1.0542588286295007,0.2871914954274973,0.1708848557029089,0.11630663972458838,,,1.213989301851282,0.2766474961987827,0.19677557449664634,0.07987192170213636,,
51,115,1.05626380443573,1.0862213373184204,2,0.9501339350272914,0.17400726323741497,0.15400724753393105,0.02000001570348392,,,1.1042076896714066,0.21743856590769317,0.17898106858714588,0.03845749732054729,,,1.1584918523095058,0.2808648795837702,0.18777999068052187,0.09308488890324834,,,1.3179284936666207,0.295181212363595,0.21362308225556229,0.08155813010803273,,
52,116,1.0922257900238037,1.081761360168457,2,0.9371144045576321,0.17189695557229268,0.15189691131932276,0.020000044252969917,,,1.0928559986759458,0.20890446568427165,0.177141072539624,0.031763393144647656,,,1.277713862787166,0.2778113371501425,0.20710469112772625,0.07070664602241625,,,1.4324506904221814,0.3188176062283674,0.232185989708559,0.08663161651980841,,
53,117,1.1292585134506226,1.072904348373413,2,0.9212595793709066,0.16932701569550732,0.14932700207061342,0.020000013624893898,,,1.078475205937941,0.19946414770019605,0.17481008926948907,0.024654058430706977,,,1.3808692283854824,0.2765062215345383,0.22382514846377197,0.05268107307076633,,,1.5288290635816988,0.33760357838324556,0.2478079640691201,0.08979561431412547,,
54,118,1.1625219583511353,1.0645897388458252,2,0.9074866553149838,0.16973177757651306,0.14709454825947194,0.022637229317041124,,,1.065898067992632,0.19277140238807414,0.17277146047684844,0.0199999419112257,,,1.4472706940579019,0.2751054272941147,0.23458816469067306,0.04051726260344163,,,1.5910984861670598,0.34538035889986385,0.2579012172667582,0.08747914163310566,,
55,119,1.2035675048828125,1.0611822605133057,2,0.9006584044848316,0.17843452765653195,0.14598775680928253,0.03244677084724942,,,1.0601739051572736,0.19184366773944844,0.17184363069389869,0.020000037045549757,,,1.4996795943582968,0.2766270509697193,0.2430831254367201,0.0335439255329992,,,1.642672564279433,0.34858544407567094,0.26626086165095586,0.08232458242471508,,
56,120,1.2476301193237305,1.0631083250045776,3,0.9102103412286837,0.1918090760141609,0.14753603061817097,0.04427304539598992,,,1.0702797084857008,0.1934816984527837,0.17348168075963558,0.02000001769314813,,,1.5327095046807033,0.2787639632756371,0.24843694492207538,0.030327018353561747,,,1.678212013435922,0.34550240617941297,0.2720214523863091,0.07348095379310388,,
57,121,1.2875324487686157,1.0716519355773926,4,0.9336621491926413,0.2084606770485424,0.1513373351091212,0.0571233419394212,,,1.093345135079272,0.1972203917723401,0.1772203566788046,0.020000035093535512,,,1.5567737272420925,0.2853368165250745,0.2523375157196199,0.0329993008054546,,,1.704401695588099,0.34723175010733226,0.27626653901394277,0.07096521109338949,,
58,122,1.3343465328216553,1.088370442390442,4,0.9743237446845978,0.2356187809894904,0.15792817474887624,0.07769060624061416,,,1.1311141512974534,0.2033423445230654,0.18334233802837027,0.020000006494695133,,,1.5884632752671581,0.2994884733620125,0.25747407582658466,0.04201439753542785,,,1.7363035455738456,0.3608745818831479,0.28143751115420645,0.07943707072894146,,
59,123,1.3728599548339844,1.1038622856140137,8,1.018049973429879,0.26460622251985866,0.165015760915248,0.09959046160461066,,,1.1682959678403784,0.2093690879357465,0.18936914015908562,0.019999947776660865,,,1.6180343949761546,0.3104562776064846,0.2622672598030607,0.048189017803423884,,,1.7645144747898365,0.37502086577134425,0.28601022179926355,0.0890106439720807,,
60,124,1.4128599166870117,1.1103459596633911,5,1.0580499352829063,0.27108989643479076,0.17149935633200367,0.09959054010278709,,,1.2082959296934057,0.2158527618506786,0.19585273557584132,0.020000026274837268,,,1.658034356829182,0.3169399515214167,0.26875085521981634,0.04818909630160034,,,1.8045144366428638,0.38150453968627634,0.29249381721601925,0.0890107224702571,,
61,125,1.43997061252594,1.1191859245300293,5,1.1009616285927415,0.303027872814566,0.1784549144170626,0.1245729583975034,,,1.2382513980534056,0.22070825838153993,0.20070821864053243,0.020000039741007503,,,1.671793459559195,0.31355989670350204,0.2709810687316883,0.042578827971813726,,,1.8164330148757744,0.3821485170622863,0.29442570003853485,0.08772281702375145,,
62,126,1.4569668769836426,1.115409255027771,4,1.141938405852345,0.325830974101595,0.18509684188214282,0.1407341322194522,,,1.2665015126099997,0.2252872919746727,0.20528728083901535,0.02000001113565736,,,1.6665784165226056,0.29175238007018517,0.2701357621972858,0.02161661787289937,,,1.8102884750111798,0.36226776054136,0.2934297313261011,0.06883802921525889,,
63,127,1.4828051328659058,1.1338677406311035,4,1.2012162563587774,0.365668615319352,0.19470519104184447,0.17096342427750755,,,1.3232202757331433,0.26203455329778724,0.21448082742239621,0.04755372587539103,,,1.661278073504789,0.2892765873674553,0.26927662938551417,0.019999957981941152,,,1.8050338007239293,0.3596988188432084,0.2925780009606937,0.06712081788251473,,
64,128,1.5170594453811646,1.1539812088012695,2,1.2766418416900869,0.3980845243511427,0.20693092718521983,0.1911535971659229,,,1.4048459112713187,0.30222673300512604,0.2277115299518045,0.07451520305332154,,,1.6545472780224166,0.28818564418525755,0.26818563447654464,0.020000009708712907,,,1.7993756825949676,0.3563745951680663,0.29166087636684557,0.06471371880122073,,
65,129,1.5596736669540405,1.1717360019683838,2,1.3668789803807462,0.41784286047345354,0.22155746860507436,0.19628539186837918,,,1.5046666409695635,0.33635936328472726,0.24389147602142217,0.0924678872633051,,,1.6476876872832256,0.28707372474805587,0.2670737631392455,0.019999961608810346,,,1.794392913848144,0.35112508170787377,0.2908532191813622,0.060271862526511566,,
66,130,1.6068660020828247,1.185354471206665,2,1.4727125121938194,0.4235975315836518,0.23871203000999666,0.18488550157365516,,,1.6206632345562306,0.3624781107951767,0.2626933685157488,0.09978474227942791,,,1.6449027404045866,0.28662235365505556,0.26662235098828907,0.020000002666766492,,,1.7936436559702045,0.3457927845433172,0.29073177194195665,0.05506101260136054,,
67,131,1.6526117324829102,1.1947566270828247,2,1.590790197220308,0.4195924596082899,0.2578512466990476,0.16174121290924232,,,1.7467042701618078,0.3833184771384286,0.2831233650186982,0.10019511211973037,,,1.6452283064431261,0.2866751558234515,0.26667512200049853,0.020000033822952956,,,1.7957587054937336,0.34113246790067037,0.2910746004038275,0.05005786749684288,,
68,132,1.694590449333191,1.200585126876831,2,1.7167301684919447,0.4122963307401532,0.27826486168006603,0.13403146906008717,,,1.8765803069844786,0.4037562358406203,0.30417497702232643,0.09958125881829388,,,1.6460225266902724,0.28680389313757054,0.2668038571921273,0.02000003594544325,,,1.7980474429818596,0.3369379606196654,0.29144558195482734,0.04549237866483807,,
69,133,1.7334226369857788,1.2035548686981201,2,1.8469165114913906,0.408171881084602,0.29936677122429994,0.10880510986030206,,,2.0057410055460108,0.4281663821214903,0.32511063981859306,0.10305574230289721,,,1.646662045237896,0.2869075588165489,0.26690751677909236,0.020000042037456534,,,1.7999403948103398,0.33306757900698336,0.29175241059242374,0.04131516841455962,,
70,134,1.770795464515686,1.2037887573242188,2,1.9740085279250241,0.4109840453925597,0.3199671212517083,0.09101692414085144,,,2.127365516549363,0.4568821276260059,0.3448247616721069,0.11205736595389898,,,1.645919101522443,0.28678714532461863,0.26678709300253683,0.020000052322081796,,,1.8004019852944988,0.32873995868054534,0.29182722981246473,0.03691272886808061,,
71,135,1.8106329441070557,1.2008044719696045,2,2.0887580698720773,0.4181967824827176,0.3385668790958878,0.07962990338682979,,,2.23439968791558,0.484631102759463,0.36217393479022386,0.12245716796923911,,,1.643055571207104,0.2863229212393319,0.2663229432591823,0.019999977980149575,,,1.7989252526716082,0.32278718244137955,0.29158786616255106,0.031199316278828493,,
72,136,1.8574594259262085,1.1933908462524414,2,2.182366988721123,0.42073817195972685,0.3537399524964863,0.06699821946324053,,,2.321406858144924,0.5000660639626832,0.37627693049298505,0.12378913346969811,,,1.6388647586106109,0.2856436541989545,0.26564365427778425,0.01999999992117024,,,1.7963964649026938,0.314082386223501,0.2911779748519362,0.022904411371564792,,
73,137,1.9121028184890747,1.189626693725586,2,2.248162609838828,0.4192462267261514,0.36440476735528005,0.05484145937087137,,,2.3854752286407175,0.5015277218328379,0.386661775229383,0.1148659466034549,,,1.6366464650986055,0.2939633316924253,0.26528409099369155,0.028679240698733732,,,1.7958065660687814,0.31108239261905096,0.2910823581263514,0.020000034492699548,,
74,138,1.9705239534378052,1.1879547834396362,3,2.2822571164141476,0.4112560531126287,0.3699311472898538,0.04132490582277487,,,2.4238319732454245,0.4859658896920587,0.3928790214966298,0.09308686819542888,,,1.6383594545045757,0.30943307908509415,0.2655617495150248,0.04387132957006934,,,1.7984241292386847,0.31150669961101485,0.2915066390452635,0.02000006056575132,,
75,139,2.0260238647460938,1.1866705417633057,4,2.2895142629351404,0.40058539637029905,0.3711074584597274,0.029477937910571628,,,2.436995129722861,0.46283002482018143,0.3950126380565837,0.06781738676359772,,,1.6417394826426337,0.3292722767685037,0.2661096184111238,0.06316265835737989,,,1.8008725255460214,0.3119034931669515,0.2919034997006556,0.019999993466295884,,
76,140,2.0740609169006348,1.1891405582427979,5,2.28930339250427,0.39471655535135874,0.3710732784631528,0.023643276888205944,,,2.439738143868846,0.44943753357447785,0.395457253329227,0.05398028024525087,,,1.6492798437497824,0.35453068990455894,0.26733183584459597,0.08719885405996297,,,1.803704054005012,0.3123624173136084,0.29236246226183454,0.019999955051773877,,
77,141,2.1111903190612793,1.1981040239334106,5,2.290393974422633,0.3946314681749746,0.3712500509299236,0.023381417245050995,,,2.4409633900022754,0.44898081011673946,0.3956558535240044,0.05332495659273506,,,1.6669503237253143,0.38508317686098154,0.2701960446506491,0.11488713221033242,,,1.8100793765258196,0.31339584163848494,0.29339583854424517,0.02000000309423977,,
78,142,2.1381022930145264,1.206756353378296,5,2.2885949165604313,0.3909584206810213,0.370958441569077,0.019999979111944344,,,2.438318907340247,0.44759521483407044,0.39522720922353693,0.05236800561053351,,,1.6956957392642003,0.4167917106154643,0.27485539020516375,0.14193632041030052,,,1.8193130590947566,0.3150874441910224,0.29489252652119147,0.020194917669830947,,
79,143,2.1655378341674805,1.2224664688110352,4,2.28763036383322,0.3908021451157505,0.3708020971789412,0.020000047936809318,,,2.436684337698302,0.44917947576468203,0.39496226176489124,0.05421721399979079,,,1.7427270710180445,0.4579138015631844,0.28247870065039765,0.17543510091278675,,,1.8428772679423078,0.3330341098223798,0.2987120500758594,0.03432205974652042,,
80,144,2.1949219703674316,1.2401481866836548,4,2.2879503926891087,0.3908539167911682,0.37085397066899334,0.019999946122174872,,,2.436617065803469,0.45021063636859293,0.3949513576607669,0.05525927870782604,,,1.80624462190551,0.4957979708618603,0.292774263014449,0.2030237078474113,,,1.8929678110802544,0.361246539399578,0.3068312282167108,0.05441531118286719,,
81,145,2.221682548522949,1.2573208808898926,5,2.2868102922454843,0.39066923321249597,0.3706691717424822,0.020000061470013764,,,2.435301272668524,0.4504641208261062,0.39473808069889194,0.05572604012721427,,,1.8794112047171625,0.519811231990387,0.304633837349053,0.215177394641334,,,1.97162002285559,0.3889581344060764,0.3195799683694635,0.0693781660366129,,
82,146,2.246734857559204,1.2723468542099,2,2.2861771317020336,0.39056650096851586,0.3705665427246679,0.01999995824384798,,,2.4348655418134917,0.44986874841901314,0.3946674530671705,0.05520129535184265,,,1.964780972702668,0.5284931894809463,0.31847142645661436,0.2100217630243319,,,2.07283631771544,0.4103871276734485,0.33598612165194836,0.07440100602150013,,
83,147,2.2729384899139404,1.2841166257858276,2,2.2825398822707963,0.38997697076329074,0.36997698081886865,0.019999989944422092,,,2.4322080068475262,0.44676123224444436,0.3942366931182358,0.05252453912620858,,,2.0591731488755873,0.526744855391709,0.3337714580681699,0.19297339732353913,,,2.1851525557878357,0.4279815594285186,0.3541914651737525,0.07379009425476613,,
84,148,2.3054163455963135,1.2923088073730469,2,2.276081615683689,0.38893012126446874,0.36893016012943375,0.019999961135034994,,,2.4274106053061564,0.44112721684316153,0.39345908211049907,0.04766813473266246,,,2.1628978981221163,0.5182514044275697,0.3505842068225297,0.16766719760503995,,,2.305187500918368,0.44491199678733306,0.37364793423135834,0.07126406255597473,,
85,149,2.3467373847961426,1.2965424060821533,2,2.2692459581734568,0.3878221637744146,0.36782216813017393,0.019999995644240653,,,2.4225278635420047,0.4339703749885713,0.39266763830263807,0.041302736685933206,,,2.277585874662994,0.505855286358087,0.36917398552755964,0.13668130083052732,,,2.431211135890653,0.46086329786255037,0.3940751102649614,0.06678818759758898,,
86,150,2.394591808319092,1.2969555854797363,2,2.265727984541167,0.3872519775313614,0.3672519396433971,0.02000003788796434,,,2.4207805950746732,0.42704755393208926,0.3923844234868776,0.03466313044521169,,,2.4032725681793825,0.4918106071675248,0.3895465467070988,0.10226406046042597,,,2.562560016673186,0.4759200835178173,0.41536545560495736,0.060554627912859926,,
87,151,2.4441919326782227,1.2941173315048218,2,2.264942612620881,0.3871246083867146,0.3671246386774231,0.019999969709291465,,,2.421351039468627,0.421203985770223,0.39247688684151133,0.02872709892871167,,,2.5339682720565193,0.47945163114075723,0.41073101857637206,0.06872061256438516,,,2.6935645741080676,0.49186212529221945,0.4365999895597596,0.05526213573245986,,
88,152,2.494908571243286,1.2872943878173828,2,2.2634708608606844,0.3868861330597224,0.3668860823757428,0.020000050683979642,,,2.4210536693450777,0.41504032346360126,0.3924286861062904,0.022611637357310865,,,2.6576919691845426,0.4699792974718173,0.43078539759280127,0.03919389987901606,,,2.8138580525273484,0.5051525026436592,0.45609836428848,0.04905413835517919,,
89,153,2.548923969268799,1.2834614515304565,2,2.2616212883678615,0.3944231497296239,0.3665862850963982,0.02783686463322571,,,2.4203472652716957,0.4151852362829142,0.39231418504177973,0.022871051241134477,,,2.7631516172894517,0.46787932143606414,0.4478793561725119,0.019999965263552244,,,2.915355913298833,0.5174661359568125,0.4725501566008443,0.04491597935596814,,
90,154,2.5819644927978516,1.2903549671173096,2,2.242621482256285,0.41609305654623224,0.36350660576378047,0.05258645078245178,,,2.40227978511598,0.4276786649633709,0.38938562646064057,0.03829303850273036,,,2.8226255360955985,0.4775195488604907,0.457519486050757,0.02000006280973371,,,2.97250721318568,0.5337377197805144,0.4818138130855554,0.051923906694959054,,
91,155,2.60796856880188,1.292689561843872,2,2.231925879490932,0.43205103828354985,0.3617729550837203,0.07027808319982953,,,2.392001555753626,0.43293300710898447,0.3877196278521674,0.045213379256817066,,,2.8545400843746607,0.48269253267425716,0.4626925164578921,0.020000016216365046,,,3.0046106582552596,0.5384044948226692,0.48701746178102134,0.05138703304164782,,
92,156,2.650721788406372,1.296190857887268,2,2.256701792454721,0.44528178542875274,0.36578888380705743,0.07949290162169531,,,2.4162928425034833,0.4328039355387951,0.3916570034931033,0.04114693204569181,,,2.8887707852498776,0.4882410187285151,0.46824097213198407,0.02000004659653104,,,3.040388652514647,0.5395929633530397,0.4928167183016452,0.04677624505139455,,
93,157,2.6945085525512695,1.3011993169784546,4,2.29540642138214,0.4590264254559776,0.3720625186580879,0.08696390679788968,,,2.4524166861501984,0.4278370568005948,0.39751231875475307,0.030324738045841737,,,2.920323906823832,0.4933554455837273,0.47335541887003113,0.020000026713696162,,,3.072366337890065,0.5434363706096679,0.4979999826032541,0.04543638800641375,,
94,158,2.738105058670044,1.3098161220550537,4,2.343036086985907,0.4802187629240294,0.37978281306098916,0.10043594986304022,,,2.4931057610669827,0.42450437705765814,0.40410761253557764,0.0203967645220805,,,2.953941239904249,0.4988044897922349,0.47880445373372926,0.020000036058505644,,,3.1049509284453713,0.5519182718993076,0.5032816201897473,0.04863665170956033,,
95,159,2.7920095920562744,1.3253642320632935,4,2.4090658903558375,0.5155935299337208,0.3904855865304133,0.12510794340330744,,,2.5459983614840414,0.4326809370082511,0.4126809762528827,0.019999960755368418,,,2.9953683958740145,0.5062428674840587,0.4855193831019548,0.020723484382103863,,,3.1448156006927,0.5636060336747163,0.5097432865089038,0.05386274716581252,,
