frame,phase,pelvis_tx,pelvis_ty,ncon,r_heel_btm_x,r_heel_btm_z,r_heel_btm_terrain_z,r_heel_btm_clearance,r_heel_btm_surface,r_heel_btm_edge_margin,r_toe_btm_x,r_toe_btm_z,r_toe_btm_terrain_z,r_toe_btm_clearance,r_toe_btm_surface,r_toe_btm_edge_margin,l_heel_btm_x,l_heel_btm_z,l_heel_btm_terrain_z,l_heel_btm_clearance,l_heel_btm_surface,l_heel_btm_edge_margin,l_toe_btm_x,l_toe_btm_z,l_toe_btm_terrain_z,l_toe_btm_clearance,l_toe_btm_surface,l_toe_btm_edge_margin
0,0,-3.9062957763671875,0.911644697189331,2,-3.9888632678608413,0.05854469571310164,0.0,0.05854469571310164,,,-3.8291098543525406,0.04835416735883234,0.0,0.04835416735883234,,,-4.169580940721023,0.019999997172800408,0.0,0.019999997172800408,,,-4.009530916257802,0.022998274836662773,0.0,0.022998274836662773,,
1,1,-3.8665623664855957,0.9039668440818787,2,-3.8578291966135847,0.027563557503172346,0.0,0.027563557503172346,,,-3.699112809780406,0.048398828862511886,0.0,0.048398828862511886,,,-4.165884300611203,0.020436792258442978,0.0,0.020436792258442978,,,-4.0058067906695305,0.019999973227328827,0.0,0.019999973227328827,,
2,2,-3.8257339000701904,0.9033586978912354,2,-3.7382363274690023,0.020000002709263352,0.0,0.020000002709263352,,,-3.5852572936230653,0.06714250064261068,0.0,0.06714250064261068,,,-4.167501508845596,0.03225730374416301,0.0,0.03225730374416301,,,-4.007530314553107,0.026407774257457592,0.0,0.026407774257457592,,
3,3,-3.78357195854187,0.9000317454338074,2,-3.6444795364450067,0.020000014560402842,0.0,0.020000014560402842,,,-3.49815206378225,0.08490972546252856,0.0,0.08490972546252856,,,-4.173545919735939,0.04667837787891603,0.0,0.04667837787891603,,,-4.01407402633049,0.03276021687800497,0.0,0.03276021687800497,,
4,4,-3.740229368209839,0.8961637616157532,2,-3.580630680540366,0.019999989538182095,0.0,0.019999989538182095,,,-3.4370208233107085,0.09071921393344348,0.0,0.09071921393344348,,,-4.173706998427037,0.06270424538380616,0.0,0.06270424538380616,,,-4.015432033259028,0.038745209984629485,0.0,0.038745209984629485,,
5,5,-3.695251226425171,0.8952184319496155,2,-3.5397356084873066,0.01999997409281078,0.0,0.01999997409281078,,,-3.3925127488348297,0.08285241582672376,0.0,0.08285241582672376,,,-4.158302503407576,0.07947776264352302,0.0,0.07947776264352302,,,-4.002407793107435,0.043120655420647816,0.0,0.043120655420647816,,
6,6,-3.6481971740722656,0.8933328986167908,2,-3.5054710544134386,0.019999991527073397,0.0,0.019999991527073397,,,-3.3519383166436194,0.06530670568484864,0.0,0.06530670568484864,,,-4.123827786080415,0.09190190235763819,0.0,0.09190190235763819,,,-3.97294943339548,0.038416179286518595,0.0,0.038416179286518595,,
7,7,-3.599423408508301,0.8924984335899353,5,-3.4732253587956934,0.019999981620521315,0.0,0.019999981620521315,,,-3.3163427798767455,0.051825386405611816,0.0,0.051825386405611816,,,-4.078297541235168,0.10977505893798371,0.0,0.10977505893798371,,,-3.9394958026103524,0.030031237290128895,0.0,0.030031237290128895,,
8,8,-3.550600528717041,0.8956723213195801,7,-3.4452043605883844,0.02000000735155765,0.0,0.02000000735155765,,,-3.2876166319819875,0.04812664525706954,0.0,0.04812664525706954,,,-4.021394974148491,0.14013979757068104,0.0,0.14013979757068104,,,-3.906048565654691,0.02914337629216318,0.0,0.02914337629216318,,
9,9,-3.5037968158721924,0.9020380973815918,8,-3.4197956270323067,0.01999997791153911,0.0,0.01999997791153911,,,-3.262715049841457,0.05083327533433185,0.0,0.05083327533433185,,,-3.9467131755203044,0.1749433217591936,0.0,0.1749433217591936,,,-3.8590483133304203,0.0410035173945959,0.0,0.0410035173945959,,
10,10,-3.4594907760620117,0.9102895855903625,7,-3.3998722555634218,0.019999996108138934,0.0,0.019999996108138934,,,-3.2435352373817956,0.05440547091936778,0.0,0.05440547091936778,,,-3.861376220773292,0.2029434603780457,0.0,0.2029434603780457,,,-3.788142300220275,0.060599538694898925,0.0,0.060599538694898925,,
11,11,-3.41679310798645,0.9191538095474243,4,-3.3911572006686197,0.020000019304051663,0.0,0.020000019304051663,,,-3.2350502625269084,0.05543480181991737,0.0,0.05543480181991737,,,-3.7766737052013255,0.21690534584859672,0.0,0.21690534584859672,,,-3.6970654794024456,0.07802579521113753,0.0,0.07802579521113753,,
12,12,-3.3752951622009277,0.9264522194862366,2,-3.390766193176006,0.019999971678397645,0.0,0.019999971678397645,,,-3.234404996954224,0.05429539801071038,0.0,0.05429539801071038,,,-3.6896989241173785,0.21315245282727646,0.0,0.21315245282727646,,,-3.5924198260011457,0.08602347737544808,0.0,0.08602347737544808,,
13,13,-3.334602117538452,0.9314038157463074,2,-3.3920930025803133,0.02000002633732849,0.0,0.02000002633732849,,,-3.235283075217827,0.052181490530577135,0.0,0.052181490530577135,,,-3.5944025189185673,0.19265880870393878,0.0,0.19265880870393878,,,-3.4765766371179754,0.08429801740493403,0.0,0.08429801740493403,,
14,14,-3.2943365573883057,0.9340625405311584,2,-3.391315259731209,0.020000010433908404,0.0,0.020000010433908404,,,-3.234029070294808,0.049766679307499645,0.0,0.049766679307499645,,,-3.486719990197912,0.1596988283612041,0.0,0.1596988283612041,,,-3.349801940435677,0.07676242282031172,0.0,0.07676242282031172,,
15,15,-3.2540855407714844,0.934493899345398,2,-3.389295951736984,0.020000021848198303,0.0,0.020000021848198303,,,-3.2315010804768396,0.04694029975869668,0.0,0.04694029975869668,,,-3.3660882919189463,0.12136200603779904,0.0,0.12136200603779904,,,-3.2148596165730807,0.06887498250927288,0.0,0.06887498250927288,,
16,16,-3.2132601737976074,0.9327378869056702,2,-3.386749678041929,0.020000023121988644,0.0,0.020000023121988644,,,-3.22841120684312,0.043535709121156306,0.0,0.043535709121156306,,,-3.234412280532885,0.08562013572512393,0.0,0.08562013572512393,,,-3.0753732380671424,0.06741071624431069,0.0,0.06741071624431069,,
17,17,-3.171098470687866,0.9285701513290405,2,-3.384448943519156,0.019999971238857,0.0,0.019999971238857,,,-3.2255034609595117,0.03900874707783401,0.0,0.03900874707783401,,,-3.0992764926916667,0.06046990402507868,0.0,0.06046990402507868,,,-2.939973105911175,0.07619984204160302,0.0,0.07619984204160302,,
18,18,-3.1277990341186523,0.9212704300880432,2,-3.3834258775310064,0.020000006850406774,0.0,0.020000006850406774,,,-3.223866225571658,0.03287313621894022,0.0,0.03287313621894022,,,-2.975232828358818,0.04877641530046917,0.0,0.04877641530046917,,,-2.82119493575263,0.09233473899133804,0.0,0.09233473899133804,,
19,19,-3.083921194076538,0.9105238318443298,2,-3.3819634246891326,0.019999972000780193,0.0,0.019999972000780193,,,-3.2219614755237376,0.024937204248045314,0.0,0.024937204248045314,,,-2.8760021540482086,0.04399415280406801,0.0,0.04399415280406801,,,-2.728732482001204,0.10673682992185916,0.0,0.10673682992185916,,
20,20,-3.0391464233398438,0.9017068147659302,2,-3.3799484180646377,0.02638611014491707,0.0,0.02638611014491707,,,-3.2199977466579224,0.019999975566823508,0.0,0.019999975566823508,,,-2.8137058265493136,0.03874313385113897,0.0,0.03874313385113897,,,-2.669258581213737,0.10773583721575147,0.0,0.10773583721575147,,
21,21,-2.9923975467681885,0.8970787525177002,6,-3.379335525261924,0.04413440842959946,0.0,0.04413440842959946,,,-3.221087206058547,0.020000004663397325,0.0,0.020000004663397325,,,-2.7912679112939287,0.0287825670441168,0.0,0.0287825670441168,,,-2.642814046298491,0.08866954241588818,0.0,0.08866954241588818,,
22,22,-2.943603992462158,0.8969904184341431,9,-3.380832533395814,0.0782854693706558,0.0,0.0782854693706558,,,-3.229196319470145,0.026987725588332623,0.0,0.026987725588332623,,,-2.796996112950657,0.0199999785561523,0.0,0.0199999785561523,,,-2.6418395963256494,0.05938849572108121,0.0,0.05938849572108121,,
23,23,-2.8943090438842773,0.9036920666694641,9,-3.3776421859622103,0.13411800508434732,0.0,0.13411800508434732,,,-3.24326491306585,0.04712519954798372,0.0,0.04712519954798372,,,-2.814735175337102,0.020000026899034698,0.0,0.020000026899034698,,,-2.6559732597706587,0.040485488774953705,0.0,0.040485488774953705,,
24,24,-2.845973491668701,0.9086911082267761,2,-3.3536404262096022,0.19487759459865858,0.0,0.19487759459865858,,,-3.2492452418150153,0.07352420624679934,0.0,0.07352420624679934,,,-2.8337191013488607,0.020000019995996668,0.0,0.020000019995996668,,,-2.674041402934833,0.03131517018894655,0.0,0.03131517018894655,,
25,25,-2.800022840499878,0.9129243493080139,2,-3.298158726669837,0.2414815481432009,0.0,0.2414815481432009,,,-3.2230459117292067,0.10012008167175596,0.0,0.10012008167175596,,,-2.8445485038004965,0.020000026016470863,0.0,0.020000026016470863,,,-2.6847222896262224,0.028976732504773613,0.0,0.028976732504773613,,
26,26,-2.7562265396118164,0.9169292449951172,2,-3.2203068902301983,0.2604186332471285,0.0,0.2604186332471285,,,-3.151928295548599,0.11567967193899295,0.0,0.11567967193899295,,,-2.845863237409839,0.020000019464274193,0.0,0.020000019464274193,,,-2.6860323857511434,0.028893773158619008,0.0,0.028893773158619008,,
27,27,-2.713773488998413,0.9202752709388733,2,-3.128652011204755,0.25000477107561064,0.0,0.25000477107561064,,,-3.043287536845309,0.11458724725824704,0.0,0.11458724725824704,,,-2.8379356957190365,0.020000013063403408,0.0,0.020000013063403408,,,-2.678119632739635,0.02915566761605645,0.0,0.02915566761605645,,
28,28,-2.672239303588867,0.9219219088554382,2,-3.0276140535729117,0.2188099947567974,0.0,0.2188099947567974,,,-2.9175199653787836,0.10260202951923736,0.0,0.10260202951923736,,,-2.8282898286210787,0.0200000104966086,0.0,0.0200000104966086,,,-2.66841627498946,0.028089933023051177,0.0,0.028089933023051177,,
29,29,-2.6312825679779053,0.9203008413314819,2,-2.921168578522014,0.1750268215019113,0.0,0.1750268215019113,,,-2.789299691034329,0.08427663598577083,0.0,0.08427663598577083,,,-2.8248349725030337,0.02000002710529964,0.0,0.02000002710529964,,,-2.6648188860234914,0.02445559294460684,0.0,0.02445559294460684,,
30,30,-2.590609550476074,0.9161199927330017,2,-2.806993704085567,0.1248436606394876,0.0,0.1248436606394876,,,-2.659295568437597,0.06311635251662517,0.0,0.06311635251662517,,,-2.8256994031159754,0.021045543004324423,0.0,0.021045543004324423,,,-2.665624711577548,0.02000001498840483,0.0,0.02000001498840483,,
31,31,-2.5500457286834717,0.9141326546669006,2,-2.681299168766035,0.07909940563583419,0.0,0.07909940563583419,,,-2.5239769361702638,0.04952382288915195,0.0,0.04952382288915195,,,-2.8260600987299007,0.026965668943142646,0.0,0.026965668943142646,,,-2.6661336179571995,0.019999985513166594,0.0,0.019999985513166594,,
32,32,-2.5091493129730225,0.9096587896347046,2,-2.548128017195316,0.04186867344648371,0.0,0.04186867344648371,,,-2.3880851582569824,0.045227736169426644,0.0,0.045227736169426644,,,-2.8255601843467044,0.032740307202221486,0.0,0.032740307202221486,,,-2.665989872871891,0.01999998973759613,0.0,0.01999998973759613,,
33,33,-2.467254400253296,0.9032634496688843,5,-2.4195520947065106,0.019999972517467626,0.0,0.019999972517467626,,,-2.2630116205142334,0.053467567190599474,0.0,0.053467567190599474,,,-2.826557924426654,0.03997777738964403,0.0,0.03997777738964403,,,-2.6676281627873975,0.020838005967379614,0.0,0.020838005967379614,,
34,34,-2.424238443374634,0.9029555320739746,2,-2.307699121976963,0.02000001790163622,0.0,0.02000001790163622,,,-2.1581928517519677,0.077209064630961,0.0,0.077209064630961,,,-2.826908937735115,0.05650230162468907,0.0,0.05650230162468907,,,-2.6690446371895877,0.029971892956881158,0.0,0.029971892956881158,,
35,35,-2.3800101280212402,0.8974539637565613,2,-2.225784245421758,0.019999986432583407,0.0,0.019999986432583407,,,-2.0814884358236814,0.08930885407025285,0.0,0.08930885407025285,,,-2.8232118033388858,0.07005661360612186,0.0,0.07005661360612186,,,-2.667147200826533,0.03443583610141223,0.0,0.03443583610141223,,
36,36,-2.333810806274414,0.8964017033576965,2,-2.176872559309329,0.019999984845985468,0.0,0.019999984845985468,,,-2.0316697577052922,0.08738801210608871,0.0,0.08738801210608871,,,-2.80975217863433,0.08817606876285979,0.0,0.08817606876285979,,,-2.6568490394404516,0.04078799081569276,0.0,0.04078799081569276,,
37,37,-2.285015821456909,0.8969835638999939,2,-2.142416427754919,0.020000011472387367,0.0,0.020000011472387367,,,-1.9915475066874444,0.07351233283091418,0.0,0.07351233283091418,,,-2.7783468787617274,0.10421817415699308,0.0,0.10421817415699308,,,-2.6310972273033295,0.041428525472872124,0.0,0.041428525472872124,,
38,38,-2.2346692085266113,0.8946243524551392,5,-2.100510531665248,0.019999986951258666,0.0,0.019999986951258666,,,-1.9451615347140454,0.05862237792323036,0.0,0.05862237792323036,,,-2.725322539572407,0.11299691227827743,0.0,0.11299691227827743,,,-2.5886462169449103,0.029662750345617203,0.0,0.029662750345617203,,
39,39,-2.18422269821167,0.8951664566993713,7,-2.063340358798458,0.020000007594769734,0.0,0.020000007594769734,,,-1.9065606486382434,0.052328361074893456,0.0,0.052328361074893456,,,-2.6641072987149172,0.13217558993748815,0.0,0.13217558993748815,,,-2.5475504859382316,0.022450894011555367,0.0,0.022450894011555367,,
40,40,-2.135514497756958,0.9005529284477234,7,-2.034626521868964,0.020000016014518427,0.0,0.020000016014518427,,,-1.8780834063938374,0.053455254033752536,0.0,0.053455254033752536,,,-2.590722680948109,0.16216748952751148,0.0,0.16216748952751148,,,-2.5017253019055157,0.029109360165530146,0.0,0.029109360165530146,,
41,41,-2.0894341468811035,0.9089216589927673,8,-2.0106259069435564,0.01999997559401409,0.0,0.01999997559401409,,,-1.8550153887176868,0.05755482293740768,0.0,0.05755482293740768,,,-2.5016275602505083,0.18972747285410296,0.0,0.18972747285410296,,,-2.433424713967778,0.04490561369904625,0.0,0.04490561369904625,,
42,42,-2.0448617935180664,0.9191059470176697,7,-1.9975457229172202,0.019999992159163173,0.0,0.019999992159163173,,,-1.8424863070829312,0.05976904414104848,0.0,0.05976904414104848,,,-2.4122956672830336,0.20659347751103563,0.0,0.20659347751103563,,,-2.342592883825719,0.06248754037770979,0.0,0.06248754037770979,,
43,43,-2.0013153553009033,0.9282826781272888,4,-1.9941497660733292,0.019999988809444667,0.0,0.019999988809444667,,,-1.8389414819733334,0.05918402233152287,0.0,0.05918402233152287,,,-2.323384593120174,0.2060835197291668,0.0,0.2060835197291668,,,-2.2333529677555712,0.07372300557314074,0.0,0.07372300557314074,,
44,44,-1.958975911140442,0.9344856142997742,2,-1.9912863574054265,0.01999999389383371,0.0,0.01999999389383371,,,-1.835562183734167,0.0570807392663332,0.0,0.0570807392663332,,,-2.223903870074186,0.18793137523289807,0.0,0.18793137523289807,,,-2.1086777061016573,0.07681013233090928,0.0,0.07681013233090928,,
45,45,-1.9175573587417603,0.937788724899292,2,-1.98856026814044,0.019999984475697508,0.0,0.019999984475697508,,,-1.832087682501325,0.053783558828874256,0.0,0.053783558828874256,,,-2.1131001277611206,0.15871096202598778,0.0,0.15871096202598778,,,-1.9761014260189769,0.0759078495445083,0.0,0.0759078495445083,,
46,46,-1.8766473531723022,0.9383970499038696,2,-1.9874660114719345,0.019999986154428898,0.0,0.019999986154428898,,,-1.8301093856815225,0.04939203072483774,0.0,0.04939203072483774,,,-1.9919198438425791,0.12511710439799267,0.0,0.12511710439799267,,,-1.8402326634030581,0.07397026498618252,0.0,0.07397026498618252,,
47,47,-1.8354846239089966,0.9365460872650146,2,-1.987551223462693,0.019999991818981475,0.0,0.019999991818981475,,,-1.8293222678880456,0.04426102216284596,0.0,0.04426102216284596,,,-1.8609694921728122,0.09336888862293823,0.0,0.09336888862293823,,,-1.7019134079172513,0.0753089315974828,0.0,0.0753089315974828,,
48,48,-1.793174386024475,0.9321930408477783,2,-1.9883894232199903,0.020000002016320243,0.0,0.020000002016320243,,,-1.8293647641758697,0.03833460869222152,0.0,0.03833460869222152,,,-1.7253125733570274,0.06956583761078435,0.0,0.06956583761078435,,,-1.5658895638665897,0.08403318140056047,0.0,0.08403318140056047,,
49,49,-1.7492324113845825,0.9247000217437744,2,-1.9903396514843839,0.019999980203648647,0.0,0.019999980203648647,,,-1.8306456196863332,0.03108222740310045,0.0,0.03108222740310045,,,-1.5965881070389984,0.05703981372266666,0.0,0.05703981372266666,,,-1.4421401688460087,0.09912109595710453,0.0,0.09912109595710453,,
50,50,-1.7041648626327515,0.9141387939453125,2,-1.9899050874967095,0.020000003914674234,0.0,0.020000003914674234,,,-1.8298465099574728,0.02250035506138525,0.0,0.02250035506138525,,,-1.484780116992416,0.05329969538822859,0.0,0.05329969538822859,,,-1.3379221497577232,0.11700006659131895,0.0,0.11700006659131895,,
51,51,-1.6582826375961304,0.9090293049812317,2,-1.9856566359427414,0.028570284971378368,0.0,0.028570284971378368,,,-1.8258081137350177,0.01999999063799954,0.0,0.01999999063799954,,,-1.4008670940732915,0.05696498271910635,0.0,0.05696498271910635,,,-1.260312575570488,0.13357716898883965,0.0,0.13357716898883965,,
52,52,-1.610606074333191,0.9052202701568604,6,-1.9830527090121206,0.04477298850956747,0.0,0.04477298850956747,,,-1.8249031007021066,0.019999991800696518,0.0,0.019999991800696518,,,-1.3573982514823262,0.051398133876156306,0.0,0.051398133876156306,,,-1.2166250528683116,0.12760775473280261,0.0,0.12760775473280261,,
53,53,-1.5604509115219116,0.8989740014076233,9,-1.9812518839847404,0.0682712998621631,0.0,0.0682712998621631,,,-1.8286252695435066,0.020000019916708696,0.0,0.020000019916708696,,,-1.3496918831742408,0.03387382448623469,0.0,0.03387382448623469,,,-1.2020449706431977,0.09572355416554693,0.0,0.09572355416554693,,
54,54,-1.5093151330947876,0.8952745795249939,9,-1.9745959905387704,0.10711617871164947,0.0,0.10711617871164947,,,-1.835813764507101,0.02733840314886188,0.0,0.02733840314886188,,,-1.360106871691864,0.019999987739593023,0.0,0.019999987739593023,,,-1.2046542618768445,0.05820320803803806,0.0,0.05820320803803806,,
55,55,-1.4592868089675903,0.9021315574645996,7,-1.9593740663461268,0.17062571589296477,0.0,0.17062571589296477,,,-1.8470272407866266,0.05659418408077163,0.0,0.05659418408077163,,,-1.380351218500613,0.01999997951049576,0.0,0.01999997951049576,,,-1.221425902813074,0.03917663246050264,0.0,0.03917663246050264,,
56,56,-1.4117456674575806,0.907097578048706,2,-1.9239089903501587,0.23220597417655223,0.0,0.23220597417655223,,,-1.843040759344496,0.09405631466735015,0.0,0.09405631466735015,,,-1.403933350549607,0.019999999951611065,0.0,0.019999999951611065,,,-1.244201683761108,0.030525902305951702,0.0,0.030525902305951702,,
57,57,-1.3670302629470825,0.9110464453697205,2,-1.8605418680478991,0.2681260578674959,0.0,0.2681260578674959,,,-1.7955517406821915,0.12183428620061221,0.0,0.12183428620061221,,,-1.4182257037490529,0.01999998514518906,0.0,0.01999998514518906,,,-1.2583465365298845,0.027978198395371585,0.0,0.027978198395371585,,
58,58,-1.3242021799087524,0.9150748252868652,2,-1.7759248530759373,0.27016520117888126,0.0,0.27016520117888126,,,-1.7028480368741041,0.1277405611317544,0.0,0.1277405611317544,,,-1.4177652654010942,0.01999997007760895,0.0,0.01999997007760895,,,-1.257887687679561,0.028009972526694463,0.0,0.028009972526694463,,
59,59,-1.2823196649551392,0.9191035628318787,2,-1.677538504293646,0.24531167375698953,0.0,0.24531167375698953,,,-1.582294854698012,0.11665069861226413,0.0,0.11665069861226413,,,-1.4064105094737032,0.02000001718377174,0.0,0.02000001718377174,,,-1.2465821778764539,0.028938944162216915,0.0,0.028938944162216915,,
60,60,-1.2413421869277954,0.9218089580535889,2,-1.5702119752720816,0.20444388643394973,0.0,0.20444388643394973,,,-1.4502713129628038,0.09842861838873648,0.0,0.09842861838873648,,,-1.393390022046465,0.020000017880162396,0.0,0.020000017880162396,,,-1.2335835026525814,0.02932076654158327,0.0,0.02932076654158327,,
61,61,-1.2012382745742798,0.921668529510498,2,-1.4571169164303646,0.15602764775561503,0.0,0.15602764775561503,,,-1.3171215748306762,0.07839837440809574,0.0,0.07839837440809574,,,-1.3864814142094832,0.02000002018913672,0.0,0.02000002018913672,,,-1.2266075058949562,0.02808293040320524,0.0,0.02808293040320524,,
62,62,-1.1616297960281372,0.9179498553276062,2,-1.3377418347545114,0.10567368693136842,0.0,0.10567368693136842,,,-1.1844942211180711,0.05941172819657947,0.0,0.05941172819657947,,,-1.385699994768784,0.020000001438492745,0.0,0.020000001438492745,,,-1.2257071840495424,0.025224991105911098,0.0,0.025224991105911098,,
63,63,-1.1220985651016235,0.9111983776092529,2,-1.211099122494823,0.0598822552481583,0.0,0.0598822552481583,,,-1.0515991601076629,0.04628953694636079,0.0,0.04628953694636079,,,-1.3865492800376715,0.019999974733413382,0.0,0.019999974733413382,,,-1.2264808534886613,0.021760321857024575,0.0,0.021760321857024575,,
64,64,-1.0820986032485962,0.9111983776092529,2,-1.1710991606417958,0.0598822552481583,0.0,0.0598822552481583,,,-1.0115991982546355,0.04628953694636079,0.0,0.04628953694636079,,,-1.3465493181846442,0.019999974733413382,0.0,0.019999974733413382,,,-1.186480891635634,0.021760321857024575,0.0,0.021760321857024575,,
65,65,-1.0423650741577148,0.9046861529350281,2,-1.0403255467534775,0.02898527444126177,0.0,0.02898527444126177,,,-0.8812066130598345,0.04648284362960235,0.0,0.04648284362960235,,,-1.342820252675635,0.02165682494364593,0.0,0.02165682494364593,,,-1.1827507209991392,0.020000012113691873,0.0,0.020000012113691873,,
66,66,-1.0015366077423096,0.9036126732826233,2,-0.920587144860637,0.020000007646622547,0.0,0.020000007646622547,,,-0.7666901004210788,0.06405338018816567,0.0,0.06405338018816567,,,-1.3443706059362952,0.03304849620027617,0.0,0.03304849620027617,,,-1.1844464154822274,0.026030426268421728,0.0,0.026030426268421728,,
67,67,-0.9593746662139893,0.9008644819259644,2,-0.8263905928741706,0.019999977226110275,0.0,0.019999977226110275,,,-0.6788689895709548,0.08214799729648938,0.0,0.08214799729648938,,,-1.3503228461159573,0.048058329580675255,0.0,0.048058329580675255,,,-1.1909495967397246,0.03305275148707984,0.0,0.03305275148707984,,
68,68,-0.9160321950912476,0.8971258401870728,2,-0.7619628033388282,0.020000008909830655,0.0,0.020000008909830655,,,-0.6171655637799723,0.08825511291625199,0.0,0.08825511291625199,,,-1.3503814034877972,0.06418356630349982,0.0,0.06418356630349982,,,-1.1922580471823958,0.039243554977935274,0.0,0.039243554977935274,,
69,69,-0.8710540533065796,0.8959823250770569,2,-0.7204166405532872,0.02000001972674241,0.0,0.02000001972674241,,,-0.5722615865752962,0.0806224564013413,0.0,0.0806224564013413,,,-1.334871014173613,0.08069169309616962,0.0,0.08069169309616962,,,-1.1791778558964068,0.043480936476006135,0.0,0.043480936476006135,,
70,70,-0.8239998817443848,0.8938041925430298,2,-0.6854292927322891,0.01999997417180688,0.0,0.01999997417180688,,,-0.5313238377220113,0.06331866134319605,0.0,0.06331866134319605,,,-1.3002835756346178,0.09273285924991541,0.0,0.09273285924991541,,,-1.1496577358431097,0.038540089757060664,0.0,0.038540089757060664,,
71,71,-0.7752261161804199,0.8927343487739563,5,-0.6524390528514213,0.02000000055404135,0.0,0.02000000055404135,,,-0.49522624617338235,0.05015183928254909,0.0,0.05015183928254909,,,-1.254626910406494,0.11027264049449306,0.0,0.11027264049449306,,,-1.1161345853057967,0.029992657803158046,0.0,0.029992657803158046,,
72,72,-0.7264032363891602,0.8957614898681641,7,-0.6236950942484918,0.020000027907612707,0.0,0.020000027907612707,,,-0.465876976865549,0.046803792492246865,0.0,0.046803792492246865,,,-1.1975920895640264,0.14038873480686487,0.0,0.14038873480686487,,,-1.0825840926606354,0.029041709098526186,0.0,0.029041709098526186,,
73,73,-0.6795995235443115,0.9020557403564453,8,-0.597600171970503,0.020000013308994216,0.0,0.020000013308994216,,,-0.44033104290929626,0.0498566877279664,0.0,0.0498566877279664,,,-1.1227925093073277,0.175027165808914,0.0,0.175027165808914,,,-1.0354298843006906,0.04089003073531128,0.0,0.04089003073531128,,
74,74,-0.6352934837341309,0.9102729558944702,7,-0.5770450370927928,0.020000007003640394,0.0,0.020000007003640394,,,-0.42056404374534245,0.05374461655496159,0.0,0.05374461655496159,,,-1.0373621632657162,0.20293449881108966,0.0,0.20293449881108966,,,-0.9643465824859017,0.06047845604081781,0.0,0.06047845604081781,,
75,75,-0.5925958156585693,0.919120192527771,4,-0.5677804545954797,0.019999993160698372,0.0,0.019999993160698372,,,-0.4115848393181169,0.05504182126942285,0.0,0.05504182126942285,,,-0.9525869114709588,0.21685980827007212,0.0,0.21685980827007212,,,-0.8731055486993392,0.07790761443623151,0.0,0.07790761443623151,,
76,76,-0.5510978698730469,0.9264228343963623,2,-0.5669552100585374,0.02000002614989505,0.0,0.02000002614989505,,,-0.4105536343840243,0.05411083203710576,0.0,0.05411083203710576,,,-0.8655546380488159,0.21311206664864352,0.0,0.21311206664864352,,,-0.7683300096092811,0.0859414294948797,0.0,0.0859414294948797,,
77,77,-0.5104048252105713,0.9313923716545105,2,-0.5679975296074852,0.019999995037332734,0.0,0.019999995037332734,,,-0.41117761209771686,0.05213274203177869,0.0,0.05213274203177869,,,-0.7702194076340242,0.19264348953596463,0.0,0.19264348953596463,,,-0.6524057402608332,0.08426941840733491,0.0,0.08426941840733491,,
78,78,-0.4701392650604248,0.9340625405311584,2,-0.5671179674033285,0.020000010433908404,0.0,0.020000010433908404,,,-0.40983177796692727,0.049766679307499645,0.0,0.049766679307499645,,,-0.6625226978700317,0.1596988283612041,0.0,0.1596988283612041,,,-0.5256046481077968,0.07676242282031172,0.0,0.07676242282031172,,
79,79,-0.4298882484436035,0.934493899345398,2,-0.5650986594091028,0.020000021848198303,0.0,0.020000021848198303,,,-0.4073037881489582,0.04694029975869668,0.0,0.04694029975869668,,,-0.5418909995910652,0.12136200603779904,0.0,0.12136200603779904,,,-0.3906623242451993,0.06887498250927288,0.0,0.06887498250927288,,
80,80,-0.38906288146972656,0.9327378869056702,2,-0.5625523857140479,0.020000023121988644,0.0,0.020000023121988644,,,-0.4042139145152389,0.043535709121156306,0.0,0.043535709121156306,,,-0.4102149882050043,0.08562013572512393,0.0,0.08562013572512393,,,-0.2511759457392614,0.06741071624431069,0.0,0.06741071624431069,,
81,81,-0.34690117835998535,0.9287975430488586,2,-0.558869970355433,0.020000012413432307,0.0,0.020000012413432307,,,-0.3999528183316231,0.039244200556417655,0.0,0.039244200556417655,,,-0.2737612385333347,0.06100418717794493,0.0,0.06100418717794493,,,-0.11449309172391686,0.07708701656728725,0.0,0.07708701656728725,,
82,82,-0.3036017417907715,0.922400176525116,2,-0.5540003752039888,0.02000001438343648,0.0,0.02000001438343648,,,-0.3945159925253752,0.03377432648070406,0.0,0.03377432648070406,,,-0.14597287403625628,0.051409839476787636,0.0,0.051409839476787636,,,0.0076914731078332466,0.0962681534590139,0.0012467111837076153,0.09502144227530629,,
83,83,-0.2597239017486572,0.9134282469749451,2,-0.5466864242083749,0.02000001798157848,0.0,0.02000001798157848,,,-0.3867558635856837,0.026871391712758437,0.0,0.026871391712758437,,,-0.04100573493874657,0.05063440336384901,0.0,0.05063440336384901,,,0.10510526083464633,0.11602994401265372,0.017036515932898257,0.09899342807975546,,
84,84,-0.2149491310119629,0.9040268659591675,2,-0.5372812522119843,0.02312324900731366,0.0,0.02312324900731366,,,-0.3772336175645178,0.020000006566109875,0.0,0.020000006566109875,,,0.028635177844005034,0.04771079105544085,0.004641477122141889,0.04306931393329896,,,0.17091120840108653,0.12107652492143725,0.02770300460618045,0.09337352031525681,,
85,85,-0.16820025444030762,0.9015083312988281,4,-0.5282733003629657,0.039354384696027395,0.0,0.039354384696027395,,,-0.3693695350761398,0.019999970157369706,0.0,0.019999970157369706,,,0.05983514614166979,0.04253408450959885,0.009698681231509102,0.032835403278089745,,,0.20543927311196625,0.10905053379643004,0.03329965999628953,0.0757508738001405,,
86,86,-0.11940670013427734,0.8974893689155579,5,-0.5210304647684598,0.06505115654012653,0.0,0.06505115654012653,,,-0.3674225453129088,0.019999996772978063,0.0,0.019999996772978063,,,0.0640205687649915,0.031350088312387184,0.010377096551940222,0.020972991760446962,,,0.21647713018546702,0.08015579270294647,0.035088786690847557,0.04506700601209891,,
87,87,-0.07011175155639648,0.9019454121589661,5,-0.5094842956917649,0.11383074371064125,0.0,0.11383074371064125,,,-0.3707411471280636,0.033985027092698364,0.0,0.033985027092698364,,,0.0569683416223984,0.029234014544188988,0.009234000772308222,0.020000013771880765,,,0.21364269716336776,0.06206915229491374,0.034629353328918165,0.027439798965995577,,
88,88,-0.02177620120346546,0.9069095849990845,7,-0.4779037865199575,0.17091941979277828,0.0,0.17091941979277828,,,-0.3659686579562093,0.05648373283141203,0.0,0.05648373283141203,,,0.049183335359520464,0.02797210420552819,0.007972128795758086,0.019999975409770103,,,0.2070511635687265,0.054481513617362004,0.03356093138490142,0.020920582232460586,,
89,89,0.02417444996535778,0.9134766459465027,2,-0.4151981993644326,0.21918068296892276,0.0,0.21918068296892276,,,-0.3296590266902312,0.0838734430334995,0.0,0.0838734430334995,,,0.04967630573952527,0.0280520198105459,0.008052034384371881,0.019999985426174018,,,0.20747962353602376,0.05494277774758382,0.03363038047813903,0.02131239726944479,,
90,90,0.06797075271606445,0.9220281839370728,2,-0.3298467106144578,0.24515355513850293,0.0,0.24515355513850293,,,-0.24927244624884784,0.10683223672204795,0.0,0.10683223672204795,,,0.05927118098138098,0.029607239465301187,0.009607268096119283,0.019999971369181906,,,0.21663559930697504,0.05895753434153428,0.03511447295709155,0.023843061384442726,,
91,91,0.11042380332946777,0.9315477609634399,2,-0.2302865278086433,0.24600139364172338,0.0,0.24600139364172338,,,-0.13235204809774026,0.11937660531495137,0.0,0.11937660531495137,,,0.07710214112725172,0.032497464115936806,0.012497489139401876,0.01999997497653493,,,0.23396983638834518,0.06439614968876078,0.03792418013898032,0.026471969549780462,,
92,92,0.15195798873901367,0.9400532245635986,2,-0.12148759520509927,0.22856362112616033,0.0,0.22856362112616033,,,9.288708763378895e-05,0.12443300182627297,1.5056071750044355e-05,0.12441794575452292,,,0.09514887140388972,0.035422658474740694,0.015422684371811341,0.019999974102929353,,,0.25183057032096134,0.06822273743566216,0.04081922721654743,0.027403510219114732,,
93,93,0.19291472434997559,0.9452702403068542,2,-0.008003552661557913,0.1992242759925559,0.0,0.1992242759925559,,,0.13307678882679733,0.1235847558443298,0.021570422024007132,0.10201433382032267,,,0.10495465322430635,0.03701209000135715,0.017012103939313943,0.019999986062043205,,,0.26205217510658796,0.06775893665657903,0.042476047545113846,0.025282889111465187,,
94,94,0.23358774185180664,0.9466396570205688,2,0.11197236611594015,0.16247623981325726,0.018149605302627384,0.14432663451062988,,,0.2657680136544363,0.11807017360112704,0.043078347963968124,0.07499182563715892,,,0.10784965385712622,0.037481367278874564,0.017481354707687743,0.02000001257118682,,,0.26574993783209966,0.063796767559003,0.043075418053202544,0.020721349505800457,,
95,95,0.2741515636444092,0.9497507810592651,2,0.24142860817430056,0.12982397976618723,0.039133172756116705,0.09069080701007053,,,0.4011195161457203,0.11869681003939925,0.06501747841684044,0.05367933162255881,,,0.10828166396290473,0.04246967218785221,0.017551379243013785,0.024918292944838428,,,0.26700154557526135,0.0632783041227528,0.043278291202355934,0.020000012920396867,,
