frame,phase,pelvis_tx,pelvis_ty,ncon,r_heel_btm_x,r_heel_btm_z,r_heel_btm_terrain_z,r_heel_btm_clearance,r_heel_btm_surface,r_heel_btm_edge_margin,r_toe_btm_x,r_toe_btm_z,r_toe_btm_terrain_z,r_toe_btm_clearance,r_toe_btm_surface,r_toe_btm_edge_margin,l_heel_btm_x,l_heel_btm_z,l_heel_btm_terrain_z,l_heel_btm_clearance,l_heel_btm_surface,l_heel_btm_edge_margin,l_toe_btm_x,l_toe_btm_z,l_toe_btm_terrain_z,l_toe_btm_clearance,l_toe_btm_surface,l_toe_btm_edge_margin
0,255,6.490221977233887,1.945480227470398,2,6.297204193640106,1.0411072584257572,1.0207140796352925,0.02039317879046476,,,6.455281606120905,1.0663368370385173,1.0463368537474016,0.01999998329111574,,,6.596210577249422,1.1323364638856483,1.0691800363147819,0.06315642757086648,,,6.755194706619304,1.151019252596784,1.0949497802037111,0.056069472393072806,,
1,256,6.544465065002441,1.9456102848052979,2,6.294685724171679,1.0500420344830623,1.0203058608184163,0.029736173664645982,,,6.453954187262084,1.0661217314359854,1.0461216923714785,0.02000003906450698,,,6.715541406203658,1.1301693617862867,1.0885223751532072,0.04164698663307953,,,6.870977611436258,1.168439272187929,1.1137170358768074,0.05472223631112172,,
2,257,6.581603527069092,1.9390374422073364,2,6.273492756515039,1.0574737895745598,1.0168706918432329,0.040603097731326976,,,6.433482117149388,1.0628033751714363,1.042803373708029,0.020000001463407413,,,6.797412789546998,1.1250442581188378,1.1017929109541844,0.02325134716465338,,,6.9491811948973385,1.1759495724774227,1.1263930578481574,0.04955651462926536,,
3,258,6.610961437225342,1.94166100025177,2,6.251162872214379,1.0772558442553486,1.0132512400037434,0.06400460425160515,,,6.411103646390518,1.070626458603975,1.0391760464875848,0.031450412116390325,,,6.849569914015143,1.1302470734394208,1.110247061345511,0.02000001209390967,,,6.999126549575071,1.187324324817593,1.134488702385685,0.05283562243190798,,
4,259,6.652695178985596,1.9471324682235718,2,6.254109675085986,1.099900557522175,1.0137288873990744,0.08617167012310056,,,6.412936721895706,1.079926344517482,1.0394731697695438,0.04045317474793819,,,6.893440068720332,1.137357949675213,1.1173579764764812,0.019999973198731924,,,7.043165365357211,1.1939912915683424,1.1416269557973648,0.052364335770977544,,
5,260,6.697009563446045,1.9507697820663452,2,6.2656231068711215,1.1333650845910468,1.0155951000176644,0.11776998457338239,,,6.415492889410214,1.0771152121426075,1.039887499064217,0.037227713078390456,,,6.909224958215104,1.1399165835002023,1.1199165498460844,0.020000033654117955,,,7.061915037661111,1.1879867358084844,1.1446660909310908,0.04332064487739351,,
6,261,8.0,2.1447439193725586,2,7.5686135434250765,1.3273392178750145,1.2267968719983122,0.1005423458767023,,,7.718483325964169,1.2710893454265753,1.2510892710448651,0.020000074381710142,,,8.21221539476906,1.3338907167841707,1.29672032,0.03717039678417078,,,8.364905474215066,1.3819608690924527,1.29672032,0.08524054909245282,,
7,262,8.04258918762207,2.162875175476074,2,7.630348338265249,1.3646317430495045,1.2368034673633477,0.12782827568615684,,,7.765403214459888,1.2786946724119002,1.2586945176479318,0.020000154763968325,,,8.244756733361621,1.3448056869452973,1.29672032,0.048085366945297414,,,8.395725323327628,1.398036173756572,1.29672032,0.10131585375657215,,
8,263,8.076837539672852,2.172062873840332,2,7.693025025697403,1.3918995657277367,1.246962734136293,0.14493683159144366,,,7.813498486554235,1.2864901507384858,1.2664902822255153,0.01999986851297053,,,8.266618658938457,1.343966603457044,1.29672032,0.04724628345704418,,,8.416177618838256,1.4010377641129421,1.29672032,0.10431744411294219,,
9,264,8.114886283874512,2.1753358840942383,2,7.7736906367813345,1.4099587516622414,1.260037826263512,0.14992092539872948,,,7.888776265340274,1.2986919660262826,1.2786920604000556,0.019999905626227,,,8.282828900029745,1.331954939046082,1.29672032,0.03523461904608216,,,8.43139175024384,1.3915710391270977,1.29672032,0.09485071912709775,,
10,265,8.151891708374023,2.177504301071167,2,7.858547765521693,1.4171880400704568,1.2737923216553217,0.1433957184151351,,,7.982646909535598,1.3160722547993626,1.2939075568725014,0.022164697926861265,,,8.287405317829133,1.31672020720513,1.29672032,0.01999988720513013,,,8.435899702573211,1.3765066400410146,1.29672032,0.07978632004101471,,
11,266,8.183119773864746,2.192235231399536,2,7.93539886466935,1.4302433605727845,1.2862491193902095,0.14399424118257498,,,8.070022341452063,1.3436320496034218,1.29672032,0.046911729603421826,,,8.283950101288475,1.3167201881399808,1.29672032,0.019999868139980892,,,8.432976117431727,1.3751688525455328,1.29672032,0.07844853254553286,,
12,267,8.219062805175781,2.207275867462158,2,8.030843875426031,1.4374712067420656,1.29672032,0.1407508867420657,,,8.17662637297331,1.371346602943304,1.29672032,0.07462628294330398,,,8.275403053156762,1.3167203387826991,1.29672032,0.02000001878269919,,,8.425501922311241,1.3723560229267548,1.29672032,0.07563570292675492,,
13,268,8.254589080810547,2.2188608646392822,2,8.134135097753205,1.4374572908706,1.29672032,0.1407369708706001,,,8.28825161043523,1.3941779604569935,1.29672032,0.09745764045699357,,,8.266286924369336,1.3167203523526754,1.29672032,0.020000032352675445,,,8.41756732807571,1.3690580953383504,1.29672032,0.07233777533835051,,
14,269,8.285011291503906,2.226088762283325,2,8.229138134570634,1.4342078344834135,1.29672032,0.13748751448341356,,,8.387598271639037,1.4115057434147606,1.29672032,0.11478542341476072,,,8.260030571064707,1.3167203329735349,1.29672032,0.02000001297353493,,,8.41218609881526,1.3664565900940824,1.29672032,0.06973627009408245,,
15,270,8.320720672607422,2.2315175533294678,2,8.346062638703229,1.4289811125818752,1.29672032,0.13226079258187529,,,8.506127299435317,1.4310558136549945,1.29672032,0.13433549365499453,,,8.255687211538447,1.3167203483043057,1.29672032,0.020000028304305806,,,8.408724591460338,1.3636730932210333,1.29672032,0.06695277322103332,,
16,271,8.35659408569336,2.2341833114624023,2,8.466134087301807,1.426228806323324,1.29672032,0.129508486323324,,,8.624190698824442,1.451588371132521,1.29672032,0.1548680511325211,,,8.253697795133217,1.316720360651189,1.29672032,0.0200000406511891,,,8.407470290134423,1.3612065348970157,1.29672032,0.06448621489701578,,
17,272,8.387557029724121,2.234651565551758,2,8.56812225250137,1.4277627663994823,1.29672032,0.13104244639948237,,,8.722361893446275,1.4706012197455167,1.29672032,0.1738808997455168,,,8.253640121693639,1.316720305113869,1.29672032,0.019999985113869023,,,8.407990636825573,1.3591575340976176,1.29672032,0.06243721409761771,,
18,273,8.424517631530762,2.2330267429351807,2,8.679121322765635,1.432415991792185,1.29672032,0.1356956717921851,,,8.827431427508426,1.492658108958464,1.29672032,0.19593778895846414,,,8.253353321360219,1.316720382803435,1.29672032,0.020000062803435137,,,8.408526600704146,1.3560428104182882,1.29672032,0.0593224904182883,,
19,274,8.462756156921387,2.228640079498291,2,8.774510714491562,1.4368271913017807,1.29672032,0.1401068713017808,,,8.916401522347089,1.5109352098850746,1.29672032,0.21421488988507464,,,8.25161791984983,1.3167202771567763,1.29672032,0.019999957156776382,,,8.407915637969623,1.3513038463905103,1.29672032,0.05458352639051034,,
20,275,8.496688842773438,2.222425937652588,2,8.839934953606774,1.436911539796152,1.29672032,0.14019121979615212,,,8.977547321389775,1.5186907300330243,1.29672032,0.22197041003302442,,,8.250283058122001,1.316720401978972,1.29672032,0.020000081978972073,,,8.407728348597622,1.3456337288781322,1.29672032,0.048913408878132225,,
21,276,8.537446975708008,2.2127280235290527,2,8.894387296826396,1.429569018573782,1.29672032,0.132848698573782,,,9.030759074044138,1.5134006241114346,1.29672032,0.21668030411143469,,,8.252022780917827,1.3167202049117308,1.29672032,0.01999988491173088,,,8.41078665190567,1.337190506608991,1.29672032,0.040470186608991154,,
22,277,8.579385757446289,2.1996638774871826,2,8.92272984886892,1.4108559948923924,1.29672032,0.11413567489239251,,,9.063301473184085,1.4874367900970604,1.29672032,0.1907164700970605,,,8.255672822732793,1.3167202595656318,1.29672032,0.01999993956563184,,,8.41552894098429,1.3251476823399813,1.29672032,0.028427362339981332,,
23,278,8.616202354431152,2.19088077545166,2,8.92956070255011,1.3932218031190933,1.29672032,0.09650148311909335,,,9.077176368809559,1.455146070702568,1.29672032,0.15842575070256815,,,8.257414732870194,1.3237911262322113,1.29672032,0.027070806232211364,,,8.417336604493052,1.3167204137809454,1.29672032,0.02000009378094547,,
24,279,8.659525871276855,2.1915581226348877,2,8.927774493685094,1.3823836518288746,1.29672032,0.08566333182887464,,,9.081870435595519,1.425736167428257,1.29672032,0.129015847428257,,,8.257899393572902,1.3508290125546103,1.29672032,0.05410869255461037,,,8.41430142238925,1.3167202844358197,1.29672032,0.01999996443581975,,
25,280,8.702055931091309,2.193664789199829,2,8.927340632922611,1.3726651049042518,1.29672032,0.07594478490425183,,,9.083987677531113,1.4056302891196404,1.29672032,0.10890996911964046,,,8.270700158717439,1.3853636487680854,1.29672032,0.08864332876808545,,,8.415313788061711,1.31672038243798,1.29672032,0.020000062437980137,,
26,281,8.736787796020508,2.193692922592163,2,8.93179994827125,1.3622372376169816,1.29672032,0.06551691761698164,,,9.088886859823898,1.393038247008009,1.29672032,0.09631792700800901,,,8.299818866037517,1.4150401890045772,1.29672032,0.11831986900457725,,,8.42614456154268,1.3167202100875979,1.29672032,0.01999989008759795,,
27,282,8.774874687194824,2.1856675148010254,2,8.936676895758087,1.3409251365082384,1.29672032,0.04420481650823849,,,9.093689022430434,1.3721051306953416,1.29672032,0.07538481069534164,,,8.351456549662823,1.4430631871469306,1.29672032,0.14634286714693068,,,8.449754370030659,1.3167202496754022,1.29672032,0.019999929675402317,,
28,283,8.810874938964844,2.175008773803711,2,8.93702243005693,1.3167203594941006,1.29672032,0.020000039494100674,,,9.094028729537008,1.3479296831518983,1.29672032,0.05120936315189839,,,8.415055593248459,1.462061656087671,1.29672032,0.165341336087671,,,8.491756862186874,1.3215557326378007,1.29672032,0.024835412637800758,,
29,284,8.840936660766602,2.1859796047210693,2,8.93391978974522,1.3167202297761136,1.29672032,0.019999909776113656,,,9.091065901971488,1.3472177603908357,1.29672032,0.05049744039083581,,,8.47266949162464,1.4851803922281959,1.29672032,0.18846007222819594,,,8.549122015133973,1.3445389657965128,1.29672032,0.04781864579651285,,
30,285,8.875391006469727,2.1972219944000244,2,8.929055557361533,1.316720298956203,1.29672032,0.01999997895620309,,,9.086476707248577,1.3457647740462333,1.29672032,0.049044454046233366,,,8.545528300217907,1.4918861173058124,1.29672032,0.19516579730581252,,,8.639170811899884,1.3620551529450882,1.29672032,0.06533483294508824,,
31,286,8.909369468688965,2.2066452503204346,2,8.921520981796569,1.3167203204270064,1.29672032,0.020000000427006448,,,9.079360230034478,1.3433993700010234,1.29672032,0.04667905000102346,,,8.626800261151272,1.4809093070940462,1.29672032,0.1841889870940463,,,8.742563876331067,1.370348080194378,1.29672032,0.073627760194378,,
32,287,8.938238143920898,2.212942361831665,2,8.911021329535211,1.3167202719192386,1.29672032,0.019999951919238645,,,9.06934070377158,1.3403840779990221,1.29672032,0.043663757999022224,,,8.702319940006939,1.4612818361298343,1.29672032,0.16456151612983438,,,8.834707488932446,1.3712899667546852,1.29672032,0.07456964675468525,,
33,288,8.9714937210083,2.2173235416412354,2,8.892518457481852,1.3167204008960613,1.29672032,0.020000080896061423,,,9.05145063447572,1.3358401054133644,1.29672032,0.03911978541336447,,,8.79435586798103,1.430255821961303,1.29672032,0.13353550196130315,,,8.940919198419493,1.3658804384757024,1.29672032,0.06916011847570247,,
34,289,9.004104614257812,2.2175235748291016,2,8.870486656931273,1.3167202196927794,1.29672032,0.019999899692779488,,,9.029968679426627,1.330521831659945,1.29672032,0.03380151165994505,,,8.891480774431475,1.3932588794216094,1.29672032,0.0965385594216095,,,9.047235569261062,1.3563069670087753,1.29672032,0.05958664700877536,,
35,290,9.031730651855469,2.2142162322998047,2,8.850389847735508,1.3167202317585283,1.29672032,0.019999911758528333,,,9.010228370996971,1.325475029209987,1.29672032,0.028754709209987128,,,8.976620746966255,1.3618939591304924,1.29672032,0.06517363913049246,,,9.136131397225496,1.3484272428881023,1.29672032,0.05170692288810241,,
36,291,9.063926696777344,2.2057974338531494,2,8.825603885908631,1.3167202121835773,1.29672032,0.01999989218357734,,,8.98565895722597,1.3194357499379583,1.29672032,0.022715429937958387,,,9.067492384982463,1.3316238563001035,1.29672032,0.034903536300103566,,,9.227339290586917,1.3402242496407233,1.29672032,0.04350392964072336,,
37,292,9.095925331115723,2.2010960578918457,2,8.79993824809324,1.3257443440343595,1.29672032,0.029024024034359552,,,8.959958433522166,1.3214385044503842,1.29672032,0.024718184450384317,,,9.141126781752819,1.3167202516286902,1.29672032,0.019999931628690293,,,9.299430195330121,1.3404905950494488,1.29672032,0.04377027504944886,,
38,293,9.122817039489746,2.2039575576782227,2,8.784278105297982,1.3425481474608398,1.29672032,0.04582782746083991,,,8.944005426011737,1.3319564991966097,1.29672032,0.03523617919660982,,,9.194219121972774,1.3167203253131365,1.29672032,0.020000005313136615,,,9.350578923304724,1.3510221106695344,1.29672032,0.054301790669534444,,
39,294,9.153759956359863,2.2039620876312256,2,8.77721439720419,1.3590515024704262,1.29672032,0.06233118247042624,,,8.936329044153435,1.341514994452489,1.29672032,0.04479467445248897,,,9.243990317619756,1.3167203178169826,1.29672032,0.019999997816982695,,,9.39857061625768,1.3583127594532547,1.29672032,0.061592439453254766,,
40,295,9.184863090515137,2.203488349914551,2,8.776364369457077,1.3759311641171323,1.29672032,0.07921084411713242,,,8.934391926159691,1.350391170077386,1.29672032,0.053670850077386145,,,9.275243233747453,1.3167204124744125,1.29672032,0.02000009247441259,,,9.430500515141285,1.3557098534956928,1.29672032,0.058989533495692914,,
41,296,9.212068557739258,2.202639579772949,2,8.780883113116102,1.3899469834126332,1.29672032,0.0932266634126333,,,8.937366614777979,1.3562140075515232,1.29672032,0.05949368755152329,,,9.291100022745205,1.316720328759481,1.29672032,0.020000008759481158,,,9.448602408804941,1.3453209992335435,1.29672032,0.04860067923354361,,
42,297,9.244451522827148,2.200030565261841,2,8.796382370594403,1.402419701561254,1.29672032,0.10569938156125414,,,8.950238803764087,1.358224703073876,1.29672032,0.06150438307387618,,,9.308949990616076,1.3167202613336932,1.29672032,0.019999941333693316,,,9.468494244603164,1.3297828419603321,1.29672032,0.033062521960332214,,
43,298,9.276673316955566,2.1978628635406494,2,8.823028003009448,1.4121887118820036,1.29672032,0.11546839188200364,,,8.972683005863201,1.3553698770914555,1.29672032,0.058649557091455584,,,9.335880260448631,1.3167202480525333,1.29672032,0.019999928052533367,,,9.495791921607207,1.3240182356721486,1.29672032,0.027297915672148676,,
44,299,9.303284645080566,2.1979541778564453,2,8.853803361591126,1.421774951072648,1.29672032,0.12505463107264814,,,8.997287169221364,1.3508003306860785,1.29672032,0.054080010686078595,,,9.362778049922118,1.316720264890345,1.29672032,0.019999944890345178,,,9.52254189290573,1.3267459554371182,1.29672032,0.030025635437118225,,
45,300,9.343284606933594,2.1979541778564453,2,8.893803323444153,1.421774951072648,1.29672032,0.12505463107264814,,,9.037287131074391,1.3508003306860785,1.29672032,0.054080010686078595,,,9.402778011775146,1.316720264890345,1.29672032,0.019999944890345178,,,9.562541854758758,1.3267459554371182,1.29672032,0.030025635437118225,,
46,301,9.391620635986328,2.201152801513672,2,8.916756407908938,1.4830106621258472,1.29672032,0.18629034212584727,,,9.034222868609517,1.3742603512297134,1.29672032,0.07754003122971342,,,9.384273130235774,1.3167203619643548,1.29672032,0.020000041964354898,,,9.544348307804956,1.3176886213079857,1.29672032,0.02096830130798577,,
47,302,9.437570571899414,2.205418109893799,2,8.970500636961626,1.5333787021614045,1.29672032,0.23665838216140456,,,9.060517708486012,1.4010082896535305,1.29672032,0.1042879696535306,,,9.374403963987193,1.317666270510982,1.29672032,0.020945950510982136,,,9.534479274944559,1.3167203202662963,1.29672032,0.020000000266296336,,
48,303,9.481367111206055,2.208681344985962,2,9.04634243832037,1.5553813828260743,1.29672032,0.2586610628260744,,,9.129044523223708,1.4183216718473377,1.29672032,0.12160135184733778,,,9.374398761703976,1.3170906827732942,1.29672032,0.020370362773294293,,,9.534476439403386,1.3167204094173492,1.29672032,0.02000008941734932,,
49,304,9.523819923400879,2.211954116821289,2,9.135535645916907,1.547767810206262,1.29672032,0.25104749020626205,,,9.23302269164568,1.4207982262639054,1.29672032,0.12407790626390547,,,9.38391495903271,1.316720420003663,1.29672032,0.020000100003663146,,,9.543991379236646,1.317455059146594,1.29672032,0.020734739146594183,,
50,305,9.565354347229004,2.2140724658966064,2,9.23345253712412,1.518678380760363,1.29672032,0.22195806076036306,,,9.352651489822074,1.4118298468338684,1.29672032,0.11510952683386844,,,9.395404072057046,1.316720235236159,1.29672032,0.019999915236159183,,,9.555480867084702,1.3173680729134305,1.29672032,0.020647752913430573,,
51,306,9.606310844421387,2.2148289680480957,2,9.33634292163833,1.4775552865854895,1.29672032,0.1808349665854896,,,9.474223183625782,1.3962285807627737,1.29672032,0.09950826076277375,,,9.400911218969183,1.3186371488340984,1.29672032,0.021916828834098512,,,9.56097784678865,1.316720208993618,1.29672032,0.019999888993618153,,
52,307,9.646984100341797,2.2144594192504883,2,9.446838726899447,1.4303909749677834,1.29672032,0.13367065496778352,,,9.597844618210601,1.377266398053883,1.29672032,0.08054607805388314,,,9.402203133838675,1.3230190960759245,1.29672032,0.026298776075924568,,,9.562157273177803,1.3167204210856036,1.29672032,0.020000101085603683,,
53,308,9.68754768371582,2.2118988037109375,2,9.568978906011251,1.3826459812745555,1.29672032,0.08592566127455559,,,9.727479710174505,1.3602295797176112,1.29672032,0.06350925971761123,,,9.403982266038165,1.327815629238042,1.29672032,0.031095309238042157,,,9.563675385726663,1.3167202464573875,1.29672032,0.019999926457387573,,
54,309,9.72844409942627,2.2069642543792725,2,9.698878518186675,1.3432700253258922,1.29672032,0.04654970532589231,,,9.858718402782264,1.3519999330750043,1.29672032,0.0552796130750044,,,9.406508637231049,1.3325124231389902,1.29672032,0.03579210313899028,,,9.565805875731865,1.3167203429824235,1.29672032,0.020000022982423538,,
55,310,9.770339012145996,2.1993823051452637,2,9.824527869685648,1.3186549659023417,1.29672032,0.02193464590234173,,,9.980263466066784,1.3556877076714298,1.29672032,0.05896738767142984,,,9.407343133117356,1.3379268891491851,1.29672032,0.04120656914918519,,,9.566010323486115,1.3167202231728155,1.29672032,0.019999903172815525,,
56,311,9.813355445861816,2.1982920169830322,2,9.933820980965901,1.316720295978319,1.29672032,0.01999997597831915,,,10.082535485484069,1.375957075097298,1.29672032,0.0792367550972981,,,9.408540316362226,1.3530417355822955,1.29672032,0.05632141558229553,,,9.566194212947812,1.3252883779577196,1.29672032,0.02856805795771966,,
57,312,9.857583999633789,2.1935510635375977,2,10.013667930756474,1.3167203654356974,1.29672032,0.020000045435697444,,,10.157518641735976,1.3869483708619748,1.29672032,0.09022805086197483,,,9.413411965544023,1.3667807200343305,1.29672032,0.07006040003433056,,,9.56934599305258,1.3305926141064186,1.29672032,0.03387229410641868,,
58,313,9.903782844543457,2.192957639694214,2,10.061208709662537,1.3167204026641408,1.29672032,0.020000082664140884,,,10.206298173020006,1.3843521070116365,1.29672032,0.08763178701163654,,,9.427598241292523,1.3849144194173928,1.29672032,0.08819409941739287,,,9.580455959504897,1.3373800330302734,1.29672032,0.04065971303027349,,
59,314,9.952577590942383,2.1937038898468018,2,10.09517698464437,1.316720310530419,1.29672032,0.01999999053041912,,,10.246045905711846,1.3702326318889457,1.29672032,0.0735123118889458,,,9.459246533637563,1.400938473215025,1.29672032,0.10421815321502503,,,9.606496185095962,1.338148824530904,1.29672032,0.041428504530903965,,
60,315,10.002924919128418,2.191344738006592,2,10.13708359598978,1.316720345613934,1.29672032,0.020000025613934103,,,10.292432592940983,1.3553427365859056,1.29672032,0.05862241658590572,,,9.512271588082621,1.4097172709409524,1.29672032,0.11299695094095252,,,9.648947910710119,1.3263831090082923,1.29672032,0.029662789008292334,,
61,316,10.05337142944336,2.1918869018554688,2,10.17425376885657,1.3167204258620882,1.29672032,0.020000105862088224,,,10.331033479016785,1.349048779342212,1.29672032,0.052328459342211975,,,9.57348682894011,1.428896008204807,1.29672032,0.13217568820480707,,,9.690043641716796,1.3191713122788742,1.29672032,0.02245099227887426,,
62,317,10.102079391479492,2.1972732543945312,2,10.202967367367487,1.3167203150725502,1.29672032,0.019999995072550236,,,10.359510482842614,1.3501755530917843,1.29672032,0.05345523309178435,,,9.646871208288342,1.4588877885855431,1.29672032,0.1621674685855432,,,9.735868587330936,1.3258296592235619,1.29672032,0.02910933922356196,,
63,318,10.148159980773926,2.205641984939575,2,10.226968220711473,1.3167202746520459,1.29672032,0.01999995465204596,,,10.382578738937344,1.3542751219954394,1.29672032,0.0575548019954395,,,9.735966567404521,1.4864477719121345,1.29672032,0.18972745191213458,,,9.804169413687251,1.3416259127570778,1.29672032,0.04490559275707784,,
64,319,10.192731857299805,2.2158262729644775,2,10.240047927900651,1.3167202912171947,1.29672032,0.019999971217194767,,,10.39510734373494,1.35648934319908,1.29672032,0.059769023199080173,,,9.825297983534837,1.5033137765690672,1.29672032,0.20659345656906725,,,9.895000766992151,1.3592078394357412,1.29672032,0.06248751943574127,,
65,320,10.236278533935547,2.2250030040740967,2,10.243444123163123,1.3167202878674757,1.29672032,0.01999996786747582,,,10.398652407263118,1.3559043213895539,1.29672032,0.05918400138955393,,,9.914209296116276,1.502803818787198,1.29672032,0.206083498787198,,,10.004240921480879,1.370443304631172,1.29672032,0.073722984631172,,
66,321,10.278617858886719,2.231205940246582,2,10.246307412621732,1.3167202929518653,1.29672032,0.019999972951865397,,,10.402031586292992,1.3538010383243648,1.29672032,0.0570807183243649,,,10.013689899952972,1.4846516742909297,1.29672032,0.18793135429092978,,,10.128916063925502,1.373530431388941,1.29672032,0.076810111388941,,
67,322,10.320035934448242,2.234508991241455,2,10.249033025049563,1.3167202239290856,1.29672032,0.019999903929085683,,,10.405505610688678,1.3505037982822623,1.29672032,0.053783478282262376,,,10.124493165428882,1.4554312014793762,1.29672032,0.1587108814793763,,,10.261491867171026,1.3726280889978966,1.29672032,0.07590776899789664,,
68,323,10.360946655273438,2.2351174354553223,2,10.250127996973804,1.316720344817104,1.29672032,0.020000024817104167,,,10.407484622764217,1.3461123893875129,1.29672032,0.04939206938751295,,,10.24567416460316,1.4218374630606676,1.29672032,0.12511714306066768,,,10.397361345042683,1.3706906236488574,1.29672032,0.07397030364885748,,
69,324,10.402109146118164,2.2332663536071777,2,10.250042546564467,1.3167202312723694,1.29672032,0.01999991127236944,,,10.408271502139115,1.340981261616234,1.29672032,0.04426094161623406,,,10.376624277854349,1.3900891280763261,1.29672032,0.09336880807632619,,,10.53568036210991,1.3720291710508707,1.29672032,0.07530885105087082,,
70,325,10.444418907165527,2.2289133071899414,2,10.249203869970012,1.3167202414697086,1.29672032,0.019999921469708637,,,10.408228529014133,1.3350548481456097,1.29672032,0.03833452814560978,,,10.512280719832976,1.3662860770641732,1.29672032,0.06956575706417323,,,10.671703729323413,1.3807534208539494,1.29672032,0.08403310085394944,,
71,326,10.488361358642578,2.221395254135132,2,10.247167033824859,1.3167203090512696,1.29672032,0.01999998905126965,,,10.406864069133762,1.3277591907198543,1.29672032,0.03103887071985434,,,10.640991820586901,1.3537314408496302,1.29672032,0.057011120849630226,,,10.795443904777676,1.3957975033672858,1.29672032,0.09907718336728588,,
72,327,10.533429145812988,2.210744857788086,2,10.24736251187227,1.3167202860564018,1.29672032,0.019999966056401863,,,10.407423593069813,1.3190548707405114,1.29672032,0.022334550740511494,,,10.75275924668006,1.3498936668438704,1.29672032,0.05317334684387043,,,10.899641142607805,1.4135388432571747,1.29672032,0.11681852325717479,,
73,328,10.57931137084961,2.2058167457580566,2,10.251256215736475,1.32564485944246,1.29672032,0.028924539442459984,,,10.411085349017977,1.316720278153636,1.29672032,0.019999958153636088,,,10.836607393859587,1.3537277723210783,1.29672032,0.0570074523210784,,,10.977223490454286,1.4302268777784077,1.29672032,0.1335065577784078,,
74,329,10.62698745727539,2.201963424682617,2,10.253436975397797,1.342084401148881,1.29672032,0.04536408114888113,,,10.41149286715824,1.3167203507402598,1.29672032,0.02000003074025991,,,10.879992927163899,1.3481017762771437,1.29672032,0.051381456277143744,,,11.020869382879848,1.4241203528571662,1.29672032,0.12740003285716628,,
75,330,10.677143096923828,2.195554256439209,2,10.25481351577507,1.365834102792327,1.29672032,0.06911378279232716,,,10.407171078887016,1.3167202263157998,1.29672032,0.019999906315799842,,,10.887605384968985,1.330405203213096,1.29672032,0.03368488321309604,,,11.035376018965813,1.391958753647208,1.29672032,0.09523843364720808,,
76,331,10.728278160095215,2.192039966583252,2,10.261130775171411,1.4054152246284142,1.29672032,0.10869490462841425,,,10.399310604942707,1.3245985532449176,1.29672032,0.027878233244917672,,,10.877090579103099,1.3167203307933615,1.29672032,0.020000010793361556,,,11.032646618625249,1.3545001998904023,1.29672032,0.05777987989040234,,
77,332,10.77830696105957,2.198889970779419,2,10.276192331423177,1.4695637826796648,1.29672032,0.17284346267966488,,,10.387440183868808,1.3544598523524318,1.29672032,0.0577395323524319,,,10.856743065517353,1.3167202145000507,1.29672032,0.019999894500050797,,,11.015734171424851,1.335343539335507,1.29672032,0.038623219335507164,,
78,333,10.825847625732422,2.203845262527466,2,10.311642417731068,1.5317585730690617,1.29672032,0.2350382530690618,,,10.390885970470986,1.3926706205107562,1.29672032,0.09595030051075626,,,10.833044257208067,1.31672024674019,1.29672032,0.01999992674019002,,,10.992819248004531,1.3265666832513603,1.29672032,0.029846363251360364,,
79,334,10.870563507080078,2.207765579223633,2,10.374928105750435,1.568159364390219,1.29672032,0.27143904439021904,,,10.437891731546209,1.420984023628451,1.29672032,0.12426370362845107,,,10.818627803442356,1.3167202900707038,1.29672032,0.019999970070703865,,,10.978544947325085,1.3238971341023011,1.29672032,0.027176814102301217,,
80,335,10.91339111328125,2.2117466926574707,2,10.459200889630718,1.5705239447474302,1.29672032,0.27380362474743025,,,10.530020219380757,1.4269634290091764,1.29672032,0.13024310900917646,,,10.81896631578175,1.3167203239300662,1.29672032,0.02000000393006629,,,10.978887158997514,1.323814258175077,1.29672032,0.027093938175076993,,
81,336,10.955273628234863,2.2157135009765625,2,10.556942856899035,1.5457957792089898,1.29672032,0.24907545920898988,,,10.649910794780295,1.4154809227196752,1.29672032,0.11876060271967526,,,10.83021146043447,1.3167204226982148,1.29672032,0.02000010269821484,,,10.990093549528325,1.324639866137182,1.29672032,0.027919546137182172,,
82,337,10.996251106262207,2.2183427810668945,2,10.663410597514199,1.5047850201592137,1.29672032,0.20806470015921374,,,10.781305038221209,1.3964988236054283,1.29672032,0.09977850360542839,,,10.843141019281166,1.31672033240285,1.29672032,0.020000012402850098,,,11.003008292034774,1.324933437755009,1.29672032,0.02821311775500912,,
83,338,11.036355018615723,2.2181127071380615,2,10.775576879001262,1.4559194048907762,1.29672032,0.15919908489077628,,,10.913969461151224,1.375467599830607,1.29672032,0.07874727983060703,,,10.849984270057655,1.3167204229652958,1.29672032,0.020000102965295863,,,11.009913326474623,1.3236267180357768,1.29672032,0.02690639803577688,,
84,339,11.075963973999023,2.2142996788024902,2,10.89409487814494,1.4048087390796962,1.29672032,0.10808841907969624,,,11.046335239812302,1.3553327633149572,1.29672032,0.0586124433149573,,,10.850732237369611,1.3167203656952657,1.29672032,0.02000004569526581,,,11.010760279757983,1.3207235704965556,1.29672032,0.024003250496555717,,
85,340,11.115494728088379,2.2074644565582275,2,11.020094160338594,1.3580009253022134,1.29672032,0.061280605302213464,,,11.179268224664138,1.341012186852346,1.29672032,0.044291866852345985,,,10.84988197081759,1.3167202137037193,1.29672032,0.01999989370371935,,,11.009959224636761,1.3172425255847229,1.29672032,0.020522205584722952,,
86,341,11.155228614807129,2.2006871700286865,2,11.163961784679138,1.3242838565612038,1.29672032,0.027563536561203916,,,11.322678171512317,1.3451191279205434,1.29672032,0.04839880792054352,,,10.855906680681523,1.3171570913164747,1.29672032,0.02043677131647481,,,11.015984190623195,1.3167202722853606,1.29672032,0.019999952285360667,,
87,342,11.196057319641113,2.2000789642333984,2,11.283554892242304,1.3167202421626518,1.29672032,0.019999922162651895,,,11.43653392608824,1.363862740095999,1.29672032,0.06714242009599913,,,10.854289710865707,1.328977543197551,1.29672032,0.03225722319755109,,,11.014260905158197,1.3231280137108457,1.29672032,0.026407693710845725,,
88,343,11.238219261169434,2.1967520713806152,2,11.377311683266297,1.3167203136184344,1.29672032,0.01999999361843452,,,11.523639155929054,1.3816300245205602,1.29672032,0.08490970452056024,,,10.848245299975364,1.3433986769369477,1.29672032,0.046678356936947774,,,11.007717193380813,1.3294805159360366,1.29672032,0.03276019593603663,,
89,344,11.281561851501465,2.1928842067718506,2,11.441160539170937,1.3167204078055013,1.29672032,0.020000087805501332,,,11.584770396400595,1.3874396322007627,1.29672032,0.09071931220076279,,,10.848084221284266,1.3594246636511247,1.29672032,0.06270434365112476,,,11.006359186452276,1.335465628251948,1.29672032,0.038745308251947996,,
