frame,phase,pelvis_tx,pelvis_ty,ncon,r_heel_btm_x,r_heel_btm_z,r_heel_btm_terrain_z,r_heel_btm_clearance,r_heel_btm_surface,r_heel_btm_edge_margin,r_toe_btm_x,r_toe_btm_z,r_toe_btm_terrain_z,r_toe_btm_clearance,r_toe_btm_surface,r_toe_btm_edge_margin,l_heel_btm_x,l_heel_btm_z,l_heel_btm_terrain_z,l_heel_btm_clearance,l_heel_btm_surface,l_heel_btm_edge_margin,l_toe_btm_x,l_toe_btm_z,l_toe_btm_terrain_z,l_toe_btm_clearance,l_toe_btm_surface,l_toe_btm_edge_margin
0,0,0.3499999940395355,0.9387088418006897,8,-0.0039629283077859175,0.10086546526853027,0.0,0.10086546526853027,,,0.14551669417602958,0.0435868276622378,0.0235868067796604,0.0200000208825774,,,0.5944428657267355,0.14469953245452183,0.09635326788336118,0.048346264571160646,,,0.7407755343642103,0.20959752868526396,0.12007233599611622,0.08952519268914774,,
1,1,0.39202215895056725,0.9492436051368713,9,0.054833758234852696,0.13590833424560358,0.008888006065637602,0.12702032817996597,,,0.1904570778410667,0.05087119601121913,0.03087119536554161,0.02000000064567752,,,0.6225091740538196,0.1424975616803872,0.10090253692275057,0.04159502475763664,,,0.766935337700581,0.2115343855979172,0.12431257956530067,0.08722180603261653,,
2,2,0.42636479437351227,0.9486061334609985,6,0.11037653938283017,0.1593243219217486,0.017890937683624517,0.1414333842381241,,,0.23428532032950863,0.057975352621000745,0.03797531694362286,0.020000035677377882,,,0.6372480230374186,0.12593934351229455,0.10329155754405608,0.022647785968238465,,,0.780837584518751,0.19669976766271147,0.12656599530814772,0.07013377235456375,,
3,3,0.46573199331760406,0.9687303304672241,4,0.18381224793726444,0.2022726071696933,0.02979413462064111,0.1724784725490522,,,0.3044283163531167,0.09702640258003993,0.04934479797480933,0.0476816046052306,,,0.6448949764703964,0.12453108623900686,0.1045310525318856,0.02000003370712125,,,0.7884846344303399,0.19529131461127713,0.12780550593419918,0.06748580867707796,,
4,4,0.504901260137558,0.9901409149169922,2,0.2653123031193291,0.23662930872424465,0.04300448182510417,0.19362482689914048,,,0.3924428728671987,0.1393522927176858,0.06361108096075915,0.07574121175692664,,,0.6418229833188793,0.12403308912841085,0.10403311303907647,0.019999976089334376,,,0.7865232651949947,0.1924935027307309,0.1274875875163873,0.0650059152143436,,
5,5,0.5383038371801376,1.005375862121582,2,0.34031163372199585,0.254088790804993,0.05516112632246365,0.19892766448252938,,,0.47609776696062467,0.1693118734156645,0.07717070609055833,0.09214116732510617,,,0.631524904624281,0.12236386504017419,0.10236389705154589,0.019999967988628298,,,0.7778914662257844,0.18718538516038674,0.12608845887619605,0.061096926284190695,,
6,6,0.5769526213407516,1.0182044506072998,2,0.43811494619281743,0.25932888944209403,0.07101406915299162,0.1883148202891024,,,0.5847927996746276,0.1952148728194117,0.09478908829097236,0.10042578452843932,,,0.6181558110134379,0.12019692995075466,0.10019690013340057,0.02000002981735409,,,0.7666662990015174,0.17994335084358035,0.12426897107180791,0.055674379771772434,,
7,7,0.6152856051921844,1.0266607999801636,2,0.5503655580891893,0.25368909907276893,0.08920877532529901,0.1644803237474699,,,0.7057630662038406,0.2152623582466359,0.11439716363150315,0.10086519461513274,,,0.6091967759699725,0.11874469652589606,0.09874472978484387,0.019999966741052186,,,0.7595977085953698,0.17355855737154025,0.12312322297013183,0.05043533440140842,,
8,8,0.6480674147605896,1.031295895576477,2,0.6567640756775365,0.2459809433996548,0.10645491529713491,0.13952602810251988,,,0.8162484901517979,0.23220699944979598,0.1323057504186445,0.09990124903115147,,,0.6051814864986558,0.11809389937307851,0.09809389135382657,0.020000008019251947,,,0.7569476796780915,0.16900580859209993,0.12269367967692903,0.046312128915170905,,
9,9,0.6865832507610321,1.0343878269195557,2,0.7892437009815905,0.24018136743274138,0.12792854306185403,0.11225282437088735,,,0.948509675523574,0.2562856942561917,0.1537439712460031,0.10254172301018857,,,0.603890586304801,0.11788464286175326,0.09788464928976863,0.019999993571984634,,,0.7570023150211881,0.16459436817668044,0.12270253552187697,0.041891832654803465,,
10,10,0.725417286157608,1.034892201423645,2,0.9216912166344512,0.2419889211236154,0.14939696617192685,0.09259195495168854,,,1.0757251133359438,0.28556137329487763,0.17436432664962764,0.11119704664524999,,,0.6033855680434523,0.11780280964716511,0.0978027908595859,0.020000018787579205,,,0.7577535870321073,0.16017632306126284,0.12282430923217774,0.037352013829085096,,
11,11,0.7593487203121185,1.0325639247894287,2,1.0249342761120472,0.24800681424512708,0.16613163781237278,0.0818751764327543,,,1.1721892383453547,0.3107840070322143,0.19000020053096806,0.12078380650124626,,,0.6003906633166025,0.11731742586231676,0.09731734663261463,0.020000079229702136,,,0.7559652753242565,0.15502074189305634,0.12253444171591975,0.03248630017713659,,
12,12,0.8006075322628021,1.024843454360962,2,1.120531420209138,0.25116770358136004,0.181626982722956,0.06954072085840404,,,1.260416876529456,0.3289948123472535,0.2043010219333346,0.12469379041391887,,,0.5904126132451469,0.1156999713508348,0.09570000409741039,0.019999967253424414,,,0.7476646015322088,0.14564679326190266,0.12118898516893978,0.024457808092962885,,
13,13,0.8441930115222931,1.017784595489502,2,1.1809644488468767,0.24771304269469677,0.19142257475216817,0.056290467942528594,,,1.3181528654229298,0.3302014544575979,0.2136594506825173,0.11654200377508062,,,0.5756257990860372,0.12039128566535971,0.09330320879888772,0.027088076866471994,,,0.734610047812464,0.13907305866525374,0.1190729720343242,0.020000086630929545,,
14,14,0.8835157454013824,1.0143214464187622,2,1.2037128729082993,0.23960975744955093,0.19510986771822114,0.04449988973132979,,,1.3439100944328062,0.31687384243883626,0.21783444096301732,0.09903940147581894,,,0.5640715419492454,0.13147281214560463,0.09143037879741485,0.040042433348189785,,,0.7240413603095555,0.13735984979896343,0.11735989305423025,0.019999956744733177,,
15,15,0.9314384758472443,1.0110071897506714,5,1.205014027771032,0.2267030214528278,0.19532077196196768,0.03138224949086013,,,1.3515286328567706,0.2911892240399706,0.21906933016089924,0.07211989387907136,,,0.5566418374106233,0.14928124029107162,0.09022609769156142,0.059055142599510196,,,0.7161750794685341,0.13608485172184853,0.11608484727805786,0.020000004443790673,,
16,16,0.9805816113948822,1.0121641159057617,5,1.2026119864586506,0.2190172244545647,0.19493142498956212,0.024085799465002583,,,1.352809612762401,0.2743857437193905,0.21927696424504206,0.055108779474348446,,,0.5608917859236817,0.17404136534312672,0.090914972016041,0.08312639332708573,,,0.7164142871470149,0.13612367087719296,0.11612362046023113,0.02000005041696183,,
17,17,1.0221055448055267,1.0201876163482666,5,1.2098824509414843,0.21939940427376506,0.19610989486840322,0.02328950940536184,,,1.3605871438160242,0.27337250335820434,0.2205376245646251,0.05283487879357923,,,0.580822840273573,0.2014194652724249,0.09414559741285705,0.10727386785956786,,,0.7277881685024055,0.13796718295242127,0.11796721334408164,0.019999969608339635,,
18,18,1.0679040849208832,1.0326062440872192,5,1.224874446762235,0.22003573882749367,0.19853994807066852,0.021495790756825145,,,1.3747976606943457,0.27614304489106756,0.2228410078138529,0.05330203707721465,,,0.6233840869255672,0.23697898131229267,0.10104435158512866,0.13593462972716402,,,0.7521825448326308,0.14192133108873956,0.12192129877922292,0.020000032309516635,,
19,19,1.1103635728359222,1.0490331649780273,8,1.238068856185608,0.2206786754666566,0.20067863042187942,0.020000045044777176,,,1.3872276002231392,0.2787877878080882,0.22485577720927263,0.05393201059881558,,,0.6823900964810637,0.2796423365672204,0.11060863803421947,0.1690336985330009,,,0.7868500747274447,0.1583447177341049,0.1275405600865745,0.030804157647530417,,
20,20,1.1448239386081696,1.065911889076233,4,1.2467223181838758,0.2220813019411394,0.20208127042331714,0.02000003151782226,,,1.395486507592518,0.2811931941852351,0.22619446383513153,0.05499873035010355,,,0.7443777268313991,0.31655919616585165,0.12065621551721055,0.1959029806486411,,,0.8331743881577944,0.1833670334776278,0.1350492699034724,0.0483177635741554,,
21,21,1.1835001409053802,1.0856692790985107,4,1.2560787216597793,0.22359791024136863,0.20359785023698249,0.020000060004386144,,,1.4045757790287028,0.28337770452476685,0.22766774420579358,0.05570996031897327,,,0.8274321351522513,0.3477539609089686,0.1341185078841138,0.2136354530248548,,,0.9166452431612764,0.21484037760490882,0.148579064129821,0.06626131347508782,,
22,22,1.2210728228092194,1.1037906408309937,3,1.2666720407232128,0.22531490197540627,0.20531492174770719,0.019999980227699082,,,1.4152501950150131,0.2848928502451805,0.22939796071999127,0.055494889525189245,,,0.9240447884516153,0.3622933329582391,0.14977845672191387,0.21251487623632526,,,1.0280227348644817,0.24058225685826198,0.16663224621509323,0.07395001064316875,,
23,23,1.2532484233379364,1.1167113780975342,2,1.274014878917137,0.22650510449432792,0.2065051226842739,0.019999981810054024,,,1.4232492975673623,0.28441959448628606,0.23069453557266564,0.05372505891362042,,,1.0153979431516826,0.3645652873994125,0.16458589322137396,0.19997939417803856,,,1.1351779924027063,0.25836858625614645,0.18400104619567437,0.07436754006047208,,
24,24,1.290836900472641,1.1275051832199097,2,1.2746863439912526,0.2266140089349617,0.2066139604849959,0.020000048449965807,,,1.4254517837632252,0.2804171877472895,0.2310515366482525,0.04936565109903701,,,1.1261303822380124,0.35873629061773893,0.18253451870217471,0.17620177191556421,,,1.2637952143240236,0.2770454482302872,0.20484861684158956,0.07219683138869765,,
25,25,1.3281324207782745,1.1326487064361572,2,1.2643776052253184,0.224942987699006,0.20494301660607606,0.019999971092929947,,,1.4171258980742998,0.2728278385041224,0.22970199350389917,0.043125845000223234,,,1.238647988445902,0.34636838695991823,0.2007725019931158,0.14559588496680242,,,1.3897612458528064,0.2935499875125963,0.2252664559307312,0.06828353158186512,,
26,26,1.3598860204219818,1.1325206756591797,2,1.2506159661097906,0.22271243058800103,0.2027123919713746,0.020000038616626414,,,1.4050428845973297,0.2648707841224276,0.22774345736609655,0.03712732675633104,,,1.3379196329260532,0.3325320901350879,0.21686344681776926,0.11566864331731863,,,1.4956825065526889,0.30540506164783965,0.2424352373144256,0.06296982433341405,,
27,27,1.3969777524471283,1.128546118736267,2,1.2352106391471587,0.22021536689437976,0.2002153419077885,0.02000002498659126,,,1.391181198319283,0.2562456960310475,0.2254966160828205,0.03074907994822701,,,1.4587409676050995,0.31644624913561414,0.23644738178874927,0.07999886734686487,,,1.6187922996148043,0.319373896922454,0.2623901085962556,0.05698378832619838,,
28,28,1.4346224963665009,1.1206860542297363,2,1.2199154130500427,0.21773615039807528,0.19773613809789792,0.020000012300177367,,,1.3771343817638357,0.24785584227810967,0.22321976702547539,0.024636075252634282,,,1.576537586707695,0.3035218930536998,0.2555410404909537,0.04798085256274609,,,1.7339724496319142,0.3324919448525211,0.28105966371973495,0.05143228113278614,,
29,29,1.4679706990718842,1.1112189292907715,2,1.2045438855910984,0.21676887614001472,0.19524456659721653,0.021524309542798187,,,1.362793436020961,0.2408952054216597,0.220895242556375,0.019999962865284715,,,1.6636518141763004,0.29464943986178027,0.2696613891059091,0.024988050755871183,,,1.8174238543401802,0.3391371862843452,0.29458630524695395,0.04455088103739124,,
30,30,1.5085789859294891,1.1162490844726562,2,1.1880993438022085,0.23612594042488216,0.19257907016087372,0.04354687026400844,,,1.3474417847133064,0.25145521029490264,0.21840689278185121,0.03304831751305143,,,1.741863269464495,0.30233874666503935,0.2823386870220308,0.02000005964300855,,,1.8923490663860891,0.35691919006124806,0.3067309358644838,0.05018825419676426,,
31,31,1.5508907735347748,1.1223206520080566,2,1.1854415127011764,0.2573324785690972,0.19214826221139417,0.06518421635770302,,,1.3454467471284095,0.2621620701583327,0.21808351705991377,0.04407855309841893,,,1.797458820498189,0.311350104335628,0.29135017211290426,0.019999932222723726,,,1.9471837147117306,0.3679845101303766,0.315619086204973,0.05236542392540361,,
32,32,1.5883333384990692,1.1255691051483154,2,1.2005597841759803,0.2705891234881384,0.194598783439476,0.0759903400486624,,,1.360532493753191,0.26478118158704494,0.22052876633375448,0.04425241525329046,,,1.8316046617358748,0.31688489894647043,0.2968848728849544,0.02000002606151602,,,1.9825100813978145,0.3702942071085578,0.321345138394175,0.048949068714382815,,
33,33,1.633380264043808,1.1297763586044312,2,1.2350706289382336,0.28375725909787647,0.20019264764742342,0.08356461145045305,,,1.393560155935765,0.26126126365177527,0.22588222141803438,0.03537904223374089,,,1.8639756966848937,0.3221318815612258,0.30213189523468226,0.01999998632654354,,,2.016064865574692,0.37207069014717503,0.3267840347035964,0.04528665544357863,,
34,34,1.6788075864315033,1.1369397640228271,4,1.2812855098708995,0.30165445866194474,0.20768361954639447,0.09397083911555026,,,1.4347353907321518,0.25606790387346384,0.23255631687319012,0.023511587000273726,,,1.8985557015081584,0.3277369306529604,0.30773696959968544,0.01999996105327495,,,2.0500821072799176,0.3793581302068234,0.3322978907722861,0.0470602394345373,,
35,35,1.7169096171855927,1.1483389139175415,4,1.326824063473115,0.327755610930121,0.21506496552131973,0.11269064540880128,,,1.471123580777533,0.25845446298481894,0.23845448005317352,0.019999982931645427,,,1.9271501685741401,0.33395187683411365,0.31237184791018907,0.021580028923924577,,,2.077383279716853,0.38922404152560963,0.33672313890463584,0.05250090262097379,,
36,36,1.7594062983989716,1.1621125936508179,4,1.386953199170368,0.36510260330881866,0.2248112995316529,0.14029130377716575,,,1.5148332708857961,0.26881300431940663,0.24553938547120951,0.02327361884819712,,,1.953890563641694,0.33670614932078696,0.3167061996163047,0.019999949704482267,,,2.1025764686854935,0.39601467733681905,0.3408067039122904,0.055207973424528656,,
37,37,1.8001160323619843,1.1800915002822876,8,1.4562406791056983,0.405937105592511,0.2360421099258698,0.1698949956666412,,,1.5699252389488372,0.293239189344944,0.2544692447782266,0.038769944566717396,,,1.9728113276606412,0.33977304839885486,0.3197730670129664,0.019999981385888432,,,2.120454319960399,0.40163213557349065,0.34370452554055386,0.05792761003293678,,
38,38,1.8341338336467743,1.1962344646453857,4,1.5201262210568196,0.4347304675987565,0.24639731997614872,0.18833314762260778,,,1.6328578790010226,0.32107936658572017,0.26466999892159093,0.05640936766412924,,,1.9814329637940336,0.34117047872685724,0.3211705483586934,0.019999930368163832,,,2.1288311496059937,0.40361064734973173,0.34506232619288146,0.05854832115685027,,
39,39,1.8729238212108612,1.2139105796813965,2,1.60062426165599,0.45688595816115846,0.25944525059678986,0.1974407075643686,,,1.722892042047126,0.35356321412342423,0.2792636400111003,0.07429957411232391,,,1.983596798190131,0.34152127350920386,0.32152128436251026,0.019999989146693598,,,2.1313878853525576,0.4030256993537563,0.34547674759231145,0.057548951761444866,,
40,40,1.9109350144863129,1.2287793159484863,2,1.6895410980873675,0.46662292951639506,0.2738577841706253,0.19276514534576977,,,1.8246268015240894,0.3807343247945034,0.2957538312441117,0.08498049355039172,,,1.9802579496069135,0.340980044788107,0.32098009026210256,0.01999995452600445,,,2.129086379895577,0.3999300082630176,0.3451036964807292,0.05482631178228842,,
41,41,1.9430476129055023,1.2387558221817017,2,1.772772580154078,0.46635673388977383,0.28734877842807766,0.17900795546169618,,,1.918303036354582,0.39967925543045113,0.31093781589483566,0.08874143953561547,,,1.9750779380645724,0.34014048548986286,0.32014046198400403,0.020000023505858833,,,2.1252028546126063,0.39570584613298976,0.3444742157122715,0.051231630420718266,,
42,42,1.9799009263515472,1.247003436088562,2,1.8790306752093309,0.45941239899735775,0.3045721573059074,0.15484024169145033,,,2.033745351595522,0.41832263335314684,0.32964986538993224,0.0886727679632146,,,1.9693753489569503,0.3392161189418021,0.319216129087446,0.01999998985435608,,,2.1211889845464644,0.3899863852617176,0.3438236073526958,0.04616277790902179,,
43,43,2.016126126050949,1.2518147230148315,2,1.9938572157410686,0.4502805718163453,0.3231843958537584,0.12709617596258688,,,2.1532708328552332,0.4357100992854334,0.349023755428338,0.0866863438570954,,,1.964882371958431,0.3384878575415947,0.3184878622660369,0.01999999527555779,,,2.1183402906482662,0.3840473472808561,0.34336186244478906,0.04068548483606704,,
44,44,2.046834319829941,1.2534748315811157,2,2.096166532793619,0.44405273571572385,0.339767717147179,0.10428501856854483,,,2.256066860499941,0.4515949633078667,0.3656859676611099,0.0859089956467568,,,1.9611558873636217,0.33788384333860855,0.3178838362290049,0.020000007109603646,,,2.115875962101599,0.37895327726609424,0.3429624193320866,0.035990857934007636,,
45,45,2.0826716125011444,1.2533674240112305,2,2.217219603149154,0.44203645864365293,0.35938921416323044,0.08264724448042249,,,2.3741162265071507,0.4737925531301672,0.3848205941191931,0.0889719590109741,,,1.9575759597807312,0.33730363960881077,0.3173035656238971,0.020000073984913658,,,2.113524169045229,0.37343058209041385,0.3425812171015079,0.030849364988905947,,
46,46,2.1192860305309296,1.250805377960205,2,2.3328276080526744,0.44593598721981587,0.3781281203023623,0.06780786691745355,,,2.4839511283075937,0.4987250155324479,0.402623737745423,0.09610127778702493,,,1.9531507689723921,0.3365862147426361,0.3165862862687658,0.019999928473870332,,,2.110175209925982,0.36770413406662467,0.34203838418391075,0.025665749882713917,,
47,47,2.1518824994564056,1.245360255241394,2,2.4187977785749646,0.44980096530545427,0.39206302868112713,0.057737936624327135,,,2.564415254694461,0.5162881856207814,0.41566617121003535,0.10062201441074603,,,1.9464026526947238,0.3354925100039241,0.3154924838313939,0.020000026172530216,,,2.104408985802172,0.3611634794170202,0.3411037366850335,0.020059742731986685,,
48,48,2.191662520170212,1.2431366443634033,2,2.494719326388614,0.4572429299162754,0.4043691554031034,0.05287377451317199,,,2.636413417589062,0.5317263796806458,0.42733635631354777,0.10439002336709807,,,1.9361628013814487,0.34248006332125563,0.31383270592243107,0.02864735739882457,,,2.095319536322018,0.35963039016534715,0.3396304274552173,0.019999962710129826,,
49,49,2.2334669530391693,1.2403419017791748,2,2.5400461393892346,0.45798223744289673,0.4117161803354466,0.04626605710745013,,,2.6826736226910195,0.5306623639420134,0.43483467480893223,0.09582768913308115,,,1.9287457155329426,0.35321324329193854,0.3126304701805633,0.04058277311137526,,,2.088734401717695,0.35856303690382924,0.3385630427237973,0.019999994180031955,,
50,50,2.271237701177597,1.2393624782562256,4,2.5561947238776175,0.4543014987476526,0.41433370504111194,0.03996779370654063,,,2.7022633756534784,0.5197915650975289,0.4380099786502073,0.08178158644732159,,,1.9285134799915442,0.3667043481751528,0.3125928271123686,0.05411152106278422,,,2.088381500643686,0.3585058135512867,0.3385058409745951,0.019999972576691616,,
51,51,2.3175327479839325,1.2408664226531982,4,2.5591112880096456,0.44764636203852676,0.41480645103793495,0.032839911000591804,,,2.7085575715722805,0.5050119283029691,0.4390302051184538,0.06598172318451534,,,1.9341393776837028,0.3896776024662337,0.3135047290943265,0.0761728733719072,,,2.0912445715305346,0.3589699808187815,0.33896991624916717,0.02000006456961434,,
52,52,2.3646088540554047,1.2464096546173096,4,2.5623344343111705,0.4430857271359104,0.415328890950875,0.027756836185035383,,,2.712982441099655,0.4972168450731607,0.43974743239714065,0.05746941267602007,,,1.9514740555264576,0.42164510188871474,0.3163145077192457,0.10533059416946905,,,2.0993227563076213,0.3602793009801608,0.34027930954281255,0.019999991437348263,,
53,53,2.403899759054184,1.2531261444091797,4,2.570585970281797,0.4398368283090049,0.41666638274641526,0.023170445562589626,,,2.721092075799593,0.4943612455784597,0.441061923410039,0.05329932216842065,,,1.9823632945617893,0.45351070185947273,0.32132134571005216,0.13218935614942057,,,2.114182114865335,0.36268780677410617,0.3426878635658067,0.019999943208299453,,
54,54,2.4472764432430267,1.2660993337631226,5,2.5839006368350854,0.4388245486729218,0.4188245575806244,0.019999991092297387,,,2.7336293517595074,0.4954488525901362,0.4430940909718726,0.052354761618263634,,,2.0374324584813928,0.4969334302292686,0.33024750869254726,0.16668592153672135,,,2.143620485951001,0.3771456920127549,0.34745953031261717,0.029686161700137714,,
55,55,2.488262504339218,1.2843838930130005,8,2.595208687047827,0.44065752764940236,0.42065747989192975,0.020000047757472605,,,2.7442173203315283,0.4991504935942927,0.4448102952212302,0.054340198373062476,,,2.1061274999890394,0.5416352948891656,0.3413822907183234,0.20025300417084224,,,2.1918239841864686,0.4064276329833181,0.35527283726974407,0.05115479571357401,,
56,56,2.522040456533432,1.3004390001296997,4,2.603967473607987,0.44207724288000494,0.42207719195581755,0.020000050924187385,,,2.752534861745247,0.5016820332473408,0.44615848584168155,0.05552354740565929,,,2.1729251484845538,0.5690004686282825,0.35220952423486723,0.21679094439341523,,,2.2575832684618677,0.4331402391407063,0.36593176228831487,0.06720847685239145,,
57,57,2.560560315847397,1.3183929920196533,3,2.6158582376239212,0.4440046099551391,0.42400456637079087,0.020000043584348204,,,2.7640946911606536,0.5044277321141263,0.44803221905401797,0.056395513060108315,,,2.2630994535345805,0.5842328907589968,0.36682588094739826,0.2174070098115985,,,2.3631974928499604,0.4593113878940752,0.3830507761439498,0.07626061175012544,,
58,58,2.598604053258896,1.3342052698135376,2,2.625421613121518,0.4455547005750662,0.4255546942877313,0.020000006287334893,,,2.7738473487174082,0.5055113587852711,0.4496130277074986,0.05589833107777248,,,2.3652741450231467,0.5871548698555683,0.38338738077776763,0.20376748907780068,,,2.485302732472597,0.4812391593606127,0.40284281931859256,0.07839634004202012,,
59,59,2.6310857236385345,1.344853162765503,2,2.627287239000429,0.4458571179659612,0.4258570936610691,0.020000024304892117,,,2.776515921088596,0.5037863877961357,0.4500455767098873,0.0537408110862484,,,2.4578397130236125,0.5833629726979382,0.39839133739758587,0.18497163530035238,,,2.5935151076363248,0.49840894396843205,0.42038296753737614,0.07802597643105591,,
60,60,2.668737977743149,1.3524320125579834,2,2.6193654436492833,0.44457312189779763,0.42457304953573005,0.020000072362067578,,,2.7702410886364337,0.49806648252355823,0.4490284888667231,0.049037993656835144,,,2.568056903886259,0.5731389111569233,0.41625644627319985,0.15688246488372343,,,2.717591543220925,0.5160040574888631,0.44049452194434147,0.07550953554452167,,
61,61,2.705901950597763,1.3541606664657593,2,2.6045856769091835,0.4421774174485775,0.4221773965536366,0.020000020894940906,,,2.7574251793001987,0.4897703414492024,0.44695115760977633,0.04281918383942607,,,2.6817021637726035,0.5584892545853509,0.4346772109939878,0.12381204359136311,,,2.8392160651657345,0.5299520712250166,0.4602086455713565,0.06974342565366015,,
62,62,2.7377603948116302,1.3516511917114258,2,2.5909835328808426,0.43997273183858837,0.4199726244839971,0.02000010735459129,,,2.7453953190235856,0.4821864763574629,0.4450012370763457,0.03718523928111722,,,2.7831614973364247,0.5447695109590283,0.45112275842972094,0.09364675252930732,,,2.9431949845117145,0.5409902277037023,0.4770625927673032,0.06392763493639914,,
63,63,2.7755552232265472,1.3440303802490234,2,2.5734051225527663,0.4371233245122831,0.41712333925078277,0.01999998526150032,,,2.729522054703497,0.47251404990609647,0.442428339027772,0.030085710878324456,,,2.8998865953467994,0.5302351048111067,0.4700427342352265,0.06019237057588017,,,3.058445300989625,0.5522382147002478,0.49574352117522036,0.05649469352502745,,
64,64,2.814480632543564,1.3304228782653809,2,2.5526402208260226,0.4337575635719279,0.4137575554992988,0.020000008072629083,,,2.7104250300144543,0.460756710949931,0.4393329015320441,0.021423809417886908,,,3.00294546102605,0.5161737370488761,0.4867475498955309,0.029426187153345273,,,3.1577746138357465,0.5568300203477874,0.5118438134676206,0.044986206880166746,,
65,65,2.8490069806575775,1.3302879333496094,2,2.5355311091141894,0.44659903777624627,0.4109843388975633,0.03561469887868296,,,2.6945625518605,0.4648747102447303,0.43676175181357046,0.02811295843115985,,,3.074204921123554,0.5182979840296504,0.49829799863311364,0.0199999853965368,,,3.2259870004171676,0.5691625129079447,0.5229003619370987,0.04626215097084607,,
66,66,2.8907669484615326,1.337381362915039,2,2.5248622427349035,0.4711389659737154,0.40925502191939017,0.061883944054325235,,,2.684803730821474,0.4777511053279705,0.4351799441210019,0.04257116120696858,,,3.1368815182703162,0.5284572159748344,0.5084572507716962,0.01999996520313818,,,3.2867456142209392,0.5847222372012805,0.5327487280788966,0.051973509122383854,,
67,67,2.93430957198143,1.3428854942321777,2,2.5302749580220754,0.4932105543773653,0.4101323691567965,0.08307818522056876,,,2.6901948630634474,0.4860955020613793,0.4360537929617487,0.05004170909963063,,,3.1798811498828967,0.5354270852680906,0.5154270627797647,0.020000022488325886,,,3.330293652345467,0.5902091898140701,0.5398074313204229,0.05040175849364725,,
68,68,2.973071902990341,1.3478221893310547,2,2.5489148054423794,0.5103206050638419,0.4131537027707475,0.09716690229309444,,,2.7075203947740007,0.48865803334883773,0.43886208908973356,0.04979594425910416,,,3.2063443770598847,0.539716483911522,0.5197164883314118,0.01999999558011023,,,3.3584183778796666,0.5897014633658273,0.5443661692072502,0.045335294158577066,,
69,69,3.0190058648586273,1.353971004486084,2,2.585166730118611,0.5298846845116292,0.41902977869159486,0.11085490582003432,,,2.7391231676884935,0.4860393284170037,0.4439845838155546,0.04205474460144909,,,3.2359432149155065,0.544514106221046,0.524514165143383,0.019999941077663008,,,3.38903372701963,0.5912933218295231,0.5493286123739608,0.0419647094555623,,
70,70,3.057683080434799,1.3608250617980957,8,2.627641298465116,0.5504284554796796,0.42591448317386255,0.12451397230581701,,,2.7731394601910253,0.48368053603935857,0.4494982860279417,0.03418225001141689,,,3.264929680937835,0.5492126196081061,0.5292125825804008,0.020000037027705253,,,3.4174386384898066,0.5978543482809998,0.5539327656103582,0.04392158267064161,,
